time(ms),ecg
0.365625,0.0
2.31875,-4.76837158203125e-05
4.271875,-4.76837158203125e-05
6.225,-0.0001430511474609375
8.178125,-0.0001430511474609375
10.13125,-4.76837158203125e-05
12.084375,-0.0003814697265625
14.0375,0.0
15.990625,-0.0001430511474609375
17.94375,-0.00095367431640625
19.896875,0.0019550323486328125
21.85,0.0011920928955078125
23.803125,-0.00667572021484375
25.75625,-0.008630752563476562
27.709375,-0.0041961669921875
29.6625,-0.0047206878662109375
31.615625,-0.010728836059570312
33.56875,-0.013828277587890625
35.521875,-0.015354156494140625
37.475,-0.01888275146484375
39.428125,-0.023365020751953125
41.38125,-0.023031234741210938
43.334375,-0.009918212890625
45.2875,0.0063419342041015625
47.240625,0.019931793212890625
49.19375,0.0370025634765625
51.146875,0.04916191101074219
53.1,0.05307197570800781
55.053125,0.05545616149902344
57.00625,0.05326271057128906
58.959375,0.047969818115234375
60.9125,0.0469207763671875
62.865625,0.049304962158203125
64.81875,0.050640106201171875
66.771875,0.05068778991699219
68.725,0.04849433898925781
70.678125,0.04487037658691406
72.63125,0.043582916259765625
74.584375,0.044536590576171875
76.5375,0.0446319580078125
78.490625,0.04115104675292969
80.44375,0.04134178161621094
82.396875,0.04315376281738281
84.35,0.03981590270996094
86.303125,0.03952980041503906
88.25625,0.04143714904785156
90.209375,0.0400543212890625
92.1625,0.039196014404296875
94.115625,0.041866302490234375
96.06875,0.04482269287109375
98.021875,0.045108795166015625
99.975,0.043964385986328125
101.928125,0.0415802001953125
103.88125,0.03972053527832031
105.834375,0.04010200500488281
107.7875,0.041866302490234375
109.740625,0.04096031188964844
111.69375,0.03871917724609375
113.646875,0.03809928894042969
115.6,0.03800392150878906
117.553125,0.040912628173828125
119.50625,0.041294097900390625
121.459375,0.03790855407714844
123.4125,0.03943443298339844
125.365625,0.04172325134277344
127.31875,0.0423431396484375
129.271875,0.044727325439453125
131.225,0.045490264892578125
133.178125,0.04324913024902344
135.13125,0.04363059997558594
137.084375,0.04620552062988281
139.0375,0.04329681396484375
140.990625,0.04138946533203125
142.94375,0.04520416259765625
144.896875,0.04382133483886719
146.85,0.04239082336425781
148.803125,0.046443939208984375
150.75625,0.04725456237792969
152.709375,0.04601478576660156
154.6625,0.046539306640625
156.615625,0.04763603210449219
158.56875,0.046253204345703125
160.521875,0.04525184631347656
162.475,0.05054473876953125
164.428125,0.053501129150390625
166.38125,0.05030632019042969
168.334375,0.05145072937011719
170.2875,0.05269050598144531
172.240625,0.05207061767578125
174.19375,0.0560760498046875
176.146875,0.05784034729003906
178.1,0.05640983581542969
180.053125,0.05779266357421875
182.00625,0.06041526794433594
183.959375,0.059604644775390625
185.9125,0.059032440185546875
187.865625,0.06108283996582031
189.81875,0.06184577941894531
191.771875,0.06251335144042969
193.725,0.06418228149414062
195.678125,0.06799697875976562
197.63125,0.07147789001464844
199.584375,0.07281303405761719
201.5375,0.07538795471191406
203.490625,0.07586479187011719
205.44375,0.07610321044921875
207.396875,0.07905960083007812
209.35,0.08177757263183594
211.303125,0.08392333984375
213.25625,0.08473396301269531
215.209375,0.08654594421386719
217.1625,0.089263916015625
219.115625,0.09140968322753906
221.06875,0.09589195251464844
223.021875,0.09913444519042969
224.975,0.09870529174804688
226.928125,0.0988006591796875
228.88125,0.10089874267578125
230.834375,0.10409355163574219
232.7875,0.10590553283691406
234.740625,0.10576248168945312
236.69375,0.10766983032226562
238.646875,0.11096000671386719
240.6,0.11143684387207031
242.553125,0.11196136474609375
244.50625,0.11301040649414062
246.459375,0.11301040649414062
248.4125,0.11429786682128906
250.365625,0.11487007141113281
252.31875,0.11386871337890625
254.271875,0.11205673217773438
256.225,0.11096000671386719
258.178125,0.11281967163085938
260.13125,0.11372566223144531
262.084375,0.11243820190429688
264.0375,0.11076927185058594
265.990625,0.10800361633300781
267.94375,0.10600090026855469
269.896875,0.10342597961425781
271.85,0.09894371032714844
273.803125,0.09789466857910156
275.75625,0.09975433349609375
277.709375,0.09665489196777344
279.6625,0.09088516235351562
281.615625,0.08645057678222656
283.56875,0.08158683776855469
285.521875,0.07739067077636719
287.475,0.0732421875
289.428125,0.07114410400390625
291.38125,0.06823539733886719
293.334375,0.06198883056640625
295.2875,0.05803108215332031
297.240625,0.053310394287109375
299.19375,0.047588348388671875
301.146875,0.045299530029296875
303.1,0.04305839538574219
305.053125,0.04029273986816406
307.00625,0.03490447998046875
308.959375,0.0274658203125
310.9125,0.023698806762695312
312.865625,0.022125244140625
314.81875,0.01983642578125
316.771875,0.016069412231445312
318.725,0.011301040649414062
320.678125,0.008630752563476562
322.63125,0.00762939453125
324.584375,0.008344650268554688
326.5375,0.009584426879882812
328.490625,0.00743865966796875
330.44375,0.0040531158447265625
332.396875,0.000762939453125
334.35,-0.002765655517578125
336.303125,-0.0039577484130859375
338.25625,-0.0028133392333984375
340.209375,-0.00362396240234375
342.1625,-0.0062465667724609375
344.115625,-0.007152557373046875
346.06875,-0.0061511993408203125
348.021875,-0.0049591064453125
349.975,-0.00476837158203125
351.928125,-0.004482269287109375
353.88125,-0.00362396240234375
355.834375,-0.004100799560546875
357.7875,-0.0043392181396484375
359.740625,-0.005054473876953125
361.69375,-0.0064849853515625
363.646875,-0.0064373016357421875
365.6,-0.005054473876953125
367.553125,-0.0041961669921875
369.50625,-0.0057697296142578125
371.459375,-0.008296966552734375
373.4125,-0.00934600830078125
375.365625,-0.008058547973632812
377.31875,-0.009584426879882812
379.271875,-0.013113021850585938
381.225,-0.009632110595703125
383.178125,-0.00591278076171875
385.13125,-0.005817413330078125
387.084375,-0.0045299530029296875
389.0375,-0.0044345855712890625
390.990625,-0.0053882598876953125
392.94375,-0.0072002410888671875
394.896875,-0.008869171142578125
396.85,-0.0069141387939453125
398.803125,-0.0035762786865234375
400.75625,-0.0029087066650390625
402.709375,-0.0063419342041015625
404.6625,-0.0071048736572265625
406.615625,-0.0030040740966796875
408.56875,-0.0030040740966796875
410.521875,-0.0040531158447265625
412.475,-0.00019073486328125
414.428125,-0.001239776611328125
416.38125,-0.0026226043701171875
418.334375,0.002288818359375
420.2875,0.0041961669921875
422.240625,0.0034332275390625
424.19375,0.0016689300537109375
426.146875,-0.000476837158203125
428.1,-0.0006198883056640625
430.053125,-0.0014781951904296875
432.00625,-0.0008106231689453125
433.959375,-0.0004291534423828125
435.9125,-0.0005245208740234375
437.865625,0.0030994415283203125
439.81875,0.00247955322265625
441.771875,0.000286102294921875
443.725,0.0039577484130859375
445.678125,0.0037670135498046875
447.63125,0.0022411346435546875
449.584375,0.0054836273193359375
451.5375,0.0047206878662109375
453.490625,0.0033855438232421875
455.44375,0.0057220458984375
457.396875,0.0066280364990234375
459.35,0.0064373016357421875
461.303125,0.007915496826171875
463.25625,0.009012222290039062
465.209375,0.009918212890625
467.1625,0.010347366333007812
469.115625,0.005245208740234375
471.06875,0.00209808349609375
473.021875,0.0057220458984375
474.975,0.006198883056640625
476.928125,0.003719329833984375
478.88125,0.0027179718017578125
480.834375,0.0041484832763671875
482.7875,0.0072956085205078125
484.740625,0.0072956085205078125
486.69375,0.0067234039306640625
488.646875,0.008392333984375
490.6,0.00782012939453125
492.553125,0.006389617919921875
494.50625,0.0072956085205078125
496.459375,0.008440017700195312
498.4125,0.009584426879882812
500.365625,0.01068115234375
502.31875,0.008821487426757812
504.271875,0.0067234039306640625
506.225,0.008249282836914062
508.178125,0.008153915405273438
510.13125,0.0067234039306640625
512.084375,0.0080108642578125
514.0375,0.0063419342041015625
515.990625,0.0047206878662109375
517.94375,0.0058650970458984375
519.896875,0.0033855438232421875
521.85,0.0015735626220703125
523.803125,0.0010967254638671875
525.75625,0.000476837158203125
527.709375,0.0040531158447265625
529.6625,0.006103515625
531.615625,0.0029087066650390625
533.56875,0.002574920654296875
535.521875,0.0038623809814453125
537.475,0.00247955322265625
539.428125,0.0032901763916015625
541.38125,0.005340576171875
543.334375,0.00400543212890625
545.2875,0.0030040740966796875
547.240625,0.003814697265625
549.19375,0.002193450927734375
551.146875,0.001621246337890625
553.1,0.0046253204345703125
555.053125,0.0038623809814453125
557.00625,4.76837158203125e-05
558.959375,-0.001430511474609375
560.9125,0.0
562.865625,0.003147125244140625
564.81875,0.005817413330078125
566.771875,0.006866455078125
568.725,0.005054473876953125
570.678125,0.002193450927734375
572.63125,0.0011920928955078125
574.584375,0.0008106231689453125
576.5375,0.002002716064453125
578.490625,0.0019550323486328125
580.44375,-0.0006198883056640625
582.396875,-0.000762939453125
584.35,-9.5367431640625e-05
586.303125,0.00095367431640625
588.25625,0.003147125244140625
590.209375,0.0025272369384765625
592.1625,0.0030994415283203125
594.115625,0.0039577484130859375
596.06875,0.001049041748046875
598.021875,0.0016689300537109375
599.975,0.004291534423828125
601.928125,0.0031948089599609375
603.88125,9.5367431640625e-05
605.834375,-0.0026226043701171875
607.7875,-0.00209808349609375
609.740625,0.000667572021484375
611.69375,0.00209808349609375
613.646875,0.0026702880859375
615.6,0.00400543212890625
617.553125,0.0025272369384765625
619.50625,-9.5367431640625e-05
621.459375,0.00209808349609375
623.4125,0.0021457672119140625
625.365625,-0.0010967254638671875
627.31875,-0.00133514404296875
629.271875,-0.0010013580322265625
631.225,-0.00057220458984375
633.178125,0.000476837158203125
635.13125,-0.000286102294921875
637.084375,-0.00095367431640625
639.0375,0.0019550323486328125
640.990625,0.0049114227294921875
642.94375,0.002765655517578125
644.896875,0.001811981201171875
646.85,0.00324249267578125
648.803125,-0.0020503997802734375
650.75625,-0.004673004150390625
652.709375,0.00019073486328125
654.6625,0.00057220458984375
656.615625,0.0007152557373046875
658.56875,0.005054473876953125
660.521875,0.0061511993408203125
662.475,0.0050067901611328125
664.428125,0.0037670135498046875
666.38125,0.0020503997802734375
668.334375,0.000476837158203125
670.2875,0.0003337860107421875
672.240625,0.00286102294921875
674.19375,0.0051021575927734375
676.146875,0.0054836273193359375
678.1,0.002956390380859375
680.053125,0.0001430511474609375
682.00625,0.0010013580322265625
683.959375,0.001430511474609375
685.9125,0.000667572021484375
687.865625,0.0001430511474609375
689.81875,0.000476837158203125
691.771875,0.002193450927734375
693.725,0.0038623809814453125
695.678125,0.004863739013671875
697.63125,0.0052928924560546875
699.584375,0.0054836273193359375
701.5375,0.004100799560546875
703.490625,0.00324249267578125
705.44375,0.00476837158203125
707.396875,0.0070095062255859375
709.35,0.00629425048828125
711.303125,0.0019550323486328125
713.25625,0.00133514404296875
715.209375,0.0030517578125
717.1625,0.0010967254638671875
719.115625,0.000762939453125
721.06875,0.003910064697265625
723.021875,0.00400543212890625
724.975,0.0031948089599609375
726.928125,0.0065326690673828125
728.88125,0.0067234039306640625
730.834375,0.0052928924560546875
732.7875,0.007724761962890625
734.740625,0.0072956085205078125
736.69375,0.006389617919921875
738.646875,0.0072479248046875
740.6,0.0057220458984375
742.553125,0.0051975250244140625
744.50625,0.0070095062255859375
746.459375,0.007534027099609375
748.4125,0.00858306884765625
750.365625,0.010061264038085938
752.31875,0.011587142944335938
754.271875,0.0133514404296875
756.225,0.009632110595703125
758.178125,0.0080108642578125
760.13125,0.01068115234375
762.084375,0.00762939453125
764.0375,0.00553131103515625
765.990625,0.00591278076171875
767.94375,0.0051021575927734375
769.896875,0.0072956085205078125
771.85,0.010347366333007812
773.803125,0.00934600830078125
775.75625,0.008821487426757812
777.709375,0.010204315185546875
779.6625,0.009059906005859375
781.615625,0.0095367431640625
783.56875,0.009202957153320312
785.521875,0.0057220458984375
787.475,0.00591278076171875
789.428125,0.0068187713623046875
791.38125,0.0063419342041015625
793.334375,0.0076770782470703125
795.2875,0.009584426879882812
797.240625,0.010728836059570312
799.19375,0.01068115234375
801.146875,0.011920928955078125
803.1,0.012159347534179688
805.053125,0.009584426879882812
807.00625,0.012874603271484375
808.959375,0.016641616821289062
810.9125,0.01316070556640625
812.865625,0.011110305786132812
814.81875,0.011920928955078125
816.771875,0.01201629638671875
818.725,0.0141143798828125
820.678125,0.023555755615234375
822.63125,0.034809112548828125
824.584375,0.037097930908203125
826.5375,0.03800392150878906
828.490625,0.03952980041503906
830.44375,0.034999847412109375
832.396875,0.03705024719238281
834.35,0.04482269287109375
836.303125,0.04229545593261719
838.25625,0.03600120544433594
840.209375,0.03724098205566406
842.1625,0.03914833068847656
844.115625,0.03604888916015625
846.06875,0.033092498779296875
848.021875,0.03490447998046875
849.975,0.03814697265625
851.928125,0.03871917724609375
853.88125,0.03771781921386719
855.834375,0.0339508056640625
857.7875,0.028896331787109375
859.740625,0.02346038818359375
861.69375,0.016164779663085938
863.646875,0.012254714965820312
865.6,0.013685226440429688
867.553125,0.016307830810546875
869.50625,0.018215179443359375
871.459375,0.017404556274414062
873.4125,0.011920928955078125
875.365625,0.008058547973632812
877.31875,0.008487701416015625
879.271875,0.005054473876953125
881.225,0.0004291534423828125
883.178125,0.0013828277587890625
885.13125,0.003719329833984375
887.084375,0.003814697265625
889.0375,0.004673004150390625
890.990625,0.0071048736572265625
892.94375,0.010061264038085938
894.896875,0.01125335693359375
896.85,0.0087738037109375
898.803125,0.005340576171875
900.75625,0.003337860107421875
902.709375,0.0019550323486328125
904.6625,0.0019550323486328125
906.615625,0.002765655517578125
908.56875,0.0017642974853515625
910.521875,9.5367431640625e-05
912.475,0.0
914.428125,0.001239776611328125
916.38125,0.003147125244140625
918.334375,0.002574920654296875
920.2875,-0.00019073486328125
922.240625,0.0001430511474609375
924.19375,0.000286102294921875
926.146875,-0.001239776611328125
928.1,-4.76837158203125e-05
930.053125,0.00057220458984375
932.00625,0.0004291534423828125
933.959375,0.001239776611328125
935.9125,0.003147125244140625
937.865625,0.003814697265625
939.81875,0.002193450927734375
941.771875,0.0038623809814453125
943.725,0.0064849853515625
945.678125,0.0062465667724609375
947.63125,0.005817413330078125
949.584375,0.0063419342041015625
951.5375,0.004100799560546875
953.490625,0.002288818359375
955.44375,0.0072956085205078125
957.396875,0.011014938354492188
959.35,0.012874603271484375
961.303125,0.019979476928710938
963.25625,0.030851364135742188
965.209375,0.045013427734375
967.1625,0.057697296142578125
969.115625,0.066375732421875
971.06875,0.07033348083496094
973.021875,0.07061958312988281
974.975,0.07433891296386719
976.928125,0.07634162902832031
978.88125,0.07367134094238281
980.834375,0.07815361022949219
982.7875,0.08702278137207031
984.740625,0.09541511535644531
986.69375,0.11076927185058594
988.646875,0.13113021850585938
990.6,0.1559734344482422
992.553125,0.18529891967773438
994.50625,0.20542144775390625
996.459375,0.20818710327148438
998.4125,0.19168853759765625
1000.365625,0.16565322875976562
1002.31875,0.14328956604003906
1004.271875,0.11072158813476562
1006.225,0.06203651428222656
1008.178125,0.01888275146484375
1010.13125,-0.0102996826171875
1012.084375,-0.027179718017578125
1014.0375,-0.030851364135742188
1015.990625,-0.03333091735839844
1017.94375,-0.03733634948730469
1019.896875,-0.029754638671875
1021.85,-0.018358230590820312
1023.803125,-0.016021728515625
1025.75625,-0.018072128295898438
1027.709375,-0.0209808349609375
1029.6625,-0.022363662719726562
1031.615625,-0.013780593872070312
1033.56875,0.0037670135498046875
1035.521875,0.02460479736328125
1037.475,0.04811286926269531
1039.428125,0.06761550903320312
1041.38125,0.07829666137695312
1043.334375,0.08182525634765625
1045.2875,0.08039474487304688
1047.240625,0.07481575012207031
1049.19375,0.06747245788574219
1051.146875,0.06341934204101562
1053.1,0.0629425048828125
1055.053125,0.06175041198730469
1057.00625,0.05545616149902344
1058.959375,0.04978179931640625
1060.9125,0.048923492431640625
1062.865625,0.04787445068359375
1064.81875,0.04673004150390625
1066.771875,0.04558563232421875
1068.725,0.04515647888183594
1070.678125,0.046253204345703125
1072.63125,0.04630088806152344
1074.584375,0.04544258117675781
1076.5375,0.0461578369140625
1078.490625,0.048351287841796875
1080.44375,0.04839897155761719
1082.396875,0.04620552062988281
1084.35,0.04563331604003906
1086.303125,0.048160552978515625
1088.25625,0.04901885986328125
1090.209375,0.0453948974609375
1092.1625,0.04458427429199219
1094.115625,0.046443939208984375
1096.06875,0.042819976806640625
1098.021875,0.04024505615234375
1099.975,0.0431060791015625
1101.928125,0.0431060791015625
1103.88125,0.04291534423828125
1105.834375,0.048351287841796875
1107.7875,0.05269050598144531
1109.740625,0.051021575927734375
1111.69375,0.04787445068359375
1113.646875,0.047588348388671875
1115.6,0.04792213439941406
1117.553125,0.0453948974609375
1119.50625,0.043773651123046875
1121.459375,0.04725456237792969
1123.4125,0.049114227294921875
1125.365625,0.049114227294921875
1127.31875,0.05116462707519531
1129.271875,0.04839897155761719
1131.225,0.04668235778808594
1133.178125,0.05097389221191406
1135.13125,0.05192756652832031
1137.084375,0.05097389221191406
1139.0375,0.05087852478027344
1140.990625,0.05040168762207031
1142.94375,0.05307197570800781
1144.896875,0.05550384521484375
1146.85,0.05421638488769531
1148.803125,0.055599212646484375
1150.75625,0.05650520324707031
1152.709375,0.055217742919921875
1154.6625,0.056362152099609375
1156.615625,0.05784034729003906
1158.56875,0.05898475646972656
1160.521875,0.05817413330078125
1162.475,0.0591278076171875
1164.428125,0.06532669067382812
1166.38125,0.06918907165527344
1168.334375,0.06632804870605469
1170.2875,0.06318092346191406
1172.240625,0.06575584411621094
1174.19375,0.06799697875976562
1176.146875,0.06871223449707031
1178.1,0.07171630859375
1180.053125,0.07367134094238281
1182.00625,0.07429122924804688
1183.959375,0.07557868957519531
1185.9125,0.07700920104980469
1187.865625,0.08044242858886719
1189.81875,0.08378028869628906
1191.771875,0.0850677490234375
1193.725,0.08759498596191406
1195.678125,0.08797645568847656
1197.63125,0.08821487426757812
1199.584375,0.09293556213378906
1201.5375,0.09827613830566406
1203.490625,0.10247230529785156
1205.44375,0.10418891906738281
1207.396875,0.10700225830078125
1209.35,0.10972023010253906
1211.303125,0.10881423950195312
1213.25625,0.11119842529296875
1215.209375,0.11391639709472656
1217.1625,0.11425018310546875
1219.115625,0.11730194091796875
1221.06875,0.12078285217285156
1223.021875,0.12574195861816406
1224.975,0.1300811767578125
1226.928125,0.13103485107421875
1228.88125,0.13098716735839844
1230.834375,0.13108253479003906
1232.7875,0.1347064971923828
1234.740625,0.13751983642578125
1236.69375,0.1358509063720703
1238.646875,0.13599395751953125
1240.6,0.138092041015625
1242.553125,0.1384258270263672
1244.50625,0.13914108276367188
1246.459375,0.14047622680664062
1248.4125,0.13985633850097656
1250.365625,0.1396656036376953
1252.31875,0.1400470733642578
1254.271875,0.1385211944580078
1256.225,0.13647079467773438
1258.178125,0.13456344604492188
1260.13125,0.13322830200195312
1262.084375,0.1297473907470703
1264.0375,0.12392997741699219
1265.990625,0.12111663818359375
1267.94375,0.1194000244140625
1269.896875,0.11501312255859375
1271.85,0.1087188720703125
1273.803125,0.10433197021484375
1275.75625,0.10304450988769531
1277.709375,0.09732246398925781
1279.6625,0.08831024169921875
1281.615625,0.083160400390625
1283.56875,0.08091926574707031
1285.521875,0.07753372192382812
1287.475,0.07009506225585938
1289.428125,0.06213188171386719
1291.38125,0.05626678466796875
1293.334375,0.051975250244140625
1295.2875,0.048065185546875
1297.240625,0.04248619079589844
1299.19375,0.03676414489746094
1301.146875,0.032711029052734375
1303.1,0.02918243408203125
1305.053125,0.024557113647460938
1307.00625,0.020503997802734375
1308.959375,0.017690658569335938
1310.9125,0.01201629638671875
1312.865625,0.0067234039306640625
1314.81875,0.0048160552978515625
1316.771875,0.0034809112548828125
1318.725,0.00209808349609375
1320.678625,-0.0022411346435546875
1322.63175,-0.007343292236328125
1324.584875,-0.007915496826171875
1326.538,-0.009202957153320312
1328.491125,-0.01125335693359375
1330.44425,-0.009870529174804688
1332.397375,-0.010633468627929688
1334.3505,-0.013017654418945312
1336.303625,-0.013685226440429688
1338.25675,-0.014257431030273438
1340.209875,-0.01468658447265625
1342.163,-0.012445449829101562
1344.116125,-0.009059906005859375
1346.06925,-0.011301040649414062
1348.022375,-0.0179290771484375
1349.9755,-0.021266937255859375
1351.928625,-0.021648406982421875
1353.88175,-0.021505355834960938
1355.834875,-0.02002716064453125
1357.788,-0.019121170043945312
1359.741125,-0.017547607421875
1361.69425,-0.017786026000976562
1363.647375,-0.01926422119140625
1365.6005,-0.016927719116210938
1367.553625,-0.017404556274414062
1369.50675,-0.01888275146484375
1371.459875,-0.016546249389648438
1373.413,-0.018787384033203125
1375.366125,-0.022649765014648438
1377.31925,-0.019693374633789062
1379.272375,-0.016164779663085938
1381.2255,-0.015735626220703125
1383.178625,-0.014209747314453125
1385.13175,-0.014448165893554688
1387.084875,-0.015354156494140625
1389.038,-0.014591217041015625
1390.991125,-0.014448165893554688
1392.94425,-0.013256072998046875
1394.897375,-0.012445449829101562
1396.8505,-0.013113021850585938
1398.803625,-0.013065338134765625
1400.75675,-0.012111663818359375
1402.709875,-0.011730194091796875
1404.663,-0.01201629638671875
1406.616125,-0.01201629638671875
1408.56925,-0.012254714965820312
1410.522375,-0.011920928955078125
1412.4755,-0.009965896606445312
1414.428625,-0.0071048736572265625
1416.38175,-0.0068187713623046875
1418.334875,-0.008678436279296875
1420.288,-0.008296966552734375
1422.241125,-0.006389617919921875
1424.19425,-0.0068187713623046875
1426.147375,-0.0074863433837890625
1428.1005,-0.00667572021484375
1430.053625,-0.007534027099609375
1432.00675,-0.008153915405273438
1433.959875,-0.00667572021484375
1435.913,-0.0031948089599609375
1437.866125,-0.000476837158203125
1439.81925,-0.003910064697265625
1441.772375,-0.00858306884765625
1443.7255,-0.00972747802734375
1445.678625,-0.008487701416015625
1447.63175,-0.007963180541992188
1449.584875,-0.009918212890625
1451.538,-0.008487701416015625
1453.491125,-0.00591278076171875
1455.44425,-0.0067234039306640625
1457.397375,-0.00705718994140625
1459.3505,-0.00705718994140625
1461.303625,-0.0076770782470703125
1463.25675,-0.007724761962890625
1465.209875,-0.00553131103515625
1467.163,-0.0020503997802734375
1469.116125,-0.001811981201171875
1471.06925,-0.0020503997802734375
1473.022375,-0.0021457672119140625
1474.9755,-0.00362396240234375
1476.928625,-0.002956390380859375
1478.88175,-0.00019073486328125
1480.834875,-0.001621246337890625
1482.788,-0.0053882598876953125
1484.741125,-0.0047206878662109375
1486.69425,-0.0050067901611328125
1488.647375,-0.0057697296142578125
1490.6005,-0.004863739013671875
1492.553625,-0.006580352783203125
1494.50675,-0.0066280364990234375
1496.459875,-0.00553131103515625
1498.413,-0.0065326690673828125
1500.366125,-0.006103515625
1502.31925,-0.0049591064453125
1504.272375,-0.0047206878662109375
1506.2255,-0.0042438507080078125
1508.178625,-0.0053882598876953125
1510.13175,-0.006103515625
1512.084875,-0.0036716461181640625
1514.038,-0.004100799560546875
1515.991125,-0.0056743621826171875
1517.94425,-0.0038623809814453125
1519.897375,-0.005626678466796875
1521.8505,-0.00858306884765625
1523.803625,-0.00705718994140625
1525.75675,-0.0060558319091796875
1527.709875,-0.0072956085205078125
1529.663,-0.008153915405273438
1531.616125,-0.008535385131835938
1533.56925,-0.00705718994140625
1535.522375,-0.0043392181396484375
1537.4755,-0.0047206878662109375
1539.428625,-0.0072002410888671875
1541.38175,-0.0087738037109375
1543.334875,-0.007534027099609375
1545.288,-0.0057220458984375
1547.241125,-0.008153915405273438
1549.19425,-0.010919570922851562
1551.147375,-0.010919570922851562
1553.1005,-0.010156631469726562
1555.053625,-0.00934600830078125
1557.00675,-0.008916854858398438
1558.959875,-0.0075817108154296875
1560.913,-0.005245208740234375
1562.866125,-0.0056743621826171875
1564.81925,-0.0072479248046875
1566.772375,-0.005054473876953125
1568.7255,-0.004291534423828125
1570.678625,-0.00820159912109375
1572.63175,-0.0087738037109375
1574.584875,-0.0055789947509765625
1576.538,-0.0049114227294921875
1578.491125,-0.004863739013671875
1580.44425,-0.00591278076171875
1582.397375,-0.007724761962890625
1584.3505,-0.0044345855712890625
1586.303625,-0.003719329833984375
1588.25675,-0.007534027099609375
1590.209875,-0.00667572021484375
1592.163,-0.0072479248046875
1594.116125,-0.008726119995117188
1596.06925,-0.00667572021484375
1598.022375,-0.0055789947509765625
1599.9755,-0.0049114227294921875
1601.928625,-0.0070095062255859375
1603.88175,-0.007534027099609375
1605.834875,-0.00514984130859375
1607.788,-0.0051975250244140625
1609.741125,-0.004291534423828125
1611.69425,-0.0018596649169921875
1613.647375,-0.0017642974853515625
1615.6005,-0.0049114227294921875
1617.553625,-0.007867813110351562
1619.50675,-0.0054836273193359375
1621.459875,-0.0028133392333984375
1623.413,-0.0051021575927734375
1625.366125,-0.0055789947509765625
1627.31925,-0.0033855438232421875
1629.272375,-0.0027179718017578125
1631.2255,-0.0018596649169921875
1633.178625,-0.0030040740966796875
1635.13175,-0.0054836273193359375
1637.084875,-0.006198883056640625
1639.038,-0.005626678466796875
1640.991125,-0.005054473876953125
1642.94425,-0.00514984130859375
1644.897375,-0.0035762786865234375
1646.8505,-0.002288818359375
1648.803625,-0.002574920654296875
1650.75675,-0.00152587890625
1652.709875,-0.0032901763916015625
1654.663,-0.0055789947509765625
1656.616125,-0.0041484832763671875
1658.56925,-0.00362396240234375
1660.522375,-0.00476837158203125
1662.4755,-0.0051975250244140625
1664.428625,-0.004100799560546875
1666.38175,-0.0019073486328125
1668.334875,-0.00247955322265625
1670.288,-0.00457763671875
1672.241125,-0.00247955322265625
1674.19425,-0.0006198883056640625
1676.147375,-0.0026702880859375
1678.1005,-0.002574920654296875
1680.053625,-0.0010967254638671875
1682.00675,-0.002956390380859375
1683.959875,-0.0033855438232421875
1685.913,-0.001239776611328125
1687.866125,-0.0007152557373046875
1689.81925,-0.0004291534423828125
1691.772375,4.76837158203125e-05
1693.7255,-4.76837158203125e-05
1695.678625,-0.00133514404296875
1697.63175,-0.00362396240234375
1699.584875,-0.004291534423828125
1701.538,-0.0007152557373046875
1703.491125,0.000667572021484375
1705.44425,-0.003147125244140625
1707.397375,-0.003910064697265625
1709.3505,-0.0001430511474609375
1711.303625,0.0019073486328125
1713.25675,0.002002716064453125
1715.209875,0.0033855438232421875
1717.163,0.001430511474609375
1719.116125,-0.001811981201171875
1721.06925,-0.0011920928955078125
1723.022375,-0.00057220458984375
1724.9755,4.76837158203125e-05
1726.928625,0.00057220458984375
1728.88175,-0.0003337860107421875
1730.834875,-0.00057220458984375
1732.788,0.0003814697265625
1734.741125,0.0021457672119140625
1736.69425,0.0045299530029296875
1738.647375,0.003337860107421875
1740.6005,0.0011920928955078125
1742.553625,0.004673004150390625
1744.50675,0.0062465667724609375
1746.459875,0.0041484832763671875
1748.413,0.005435943603515625
1750.366125,0.006103515625
1752.31925,0.005626678466796875
1754.272375,0.005817413330078125
1756.2255,0.0032901763916015625
1758.178625,-0.00019073486328125
1760.13175,0.00133514404296875
1762.084875,0.0034809112548828125
1764.038,0.0033855438232421875
1765.991125,0.0041484832763671875
1767.94425,0.0025272369384765625
1769.897375,0.0025272369384765625
1771.8505,0.0055789947509765625
1773.803625,0.005245208740234375
1775.75675,0.003528594970703125
1777.709875,0.0034809112548828125
1779.663,0.0048160552978515625
1781.616125,0.004482269287109375
1783.56925,0.0026226043701171875
1785.522375,0.0038623809814453125
1787.4755,0.004673004150390625
1789.428625,0.0040531158447265625
1791.38175,0.0051975250244140625
1793.334875,0.0064849853515625
1795.288,0.007343292236328125
1797.241125,0.006198883056640625
1799.19425,0.0052928924560546875
1801.147375,0.0072479248046875
1803.1005,0.006866455078125
1805.053625,0.0055789947509765625
1807.00675,0.00667572021484375
1808.959875,0.008153915405273438
1810.913,0.00782012939453125
1812.866125,0.0051975250244140625
1814.81925,0.0050067901611328125
1816.772375,0.007343292236328125
1818.7255,0.007915496826171875
1820.678625,0.0073909759521484375
1822.63175,0.006866455078125
1824.584875,0.0069141387939453125
1826.538,0.010442733764648438
1828.491125,0.013971328735351562
1830.44425,0.01163482666015625
1832.397375,0.008630752563476562
1834.3505,0.008630752563476562
1836.303625,0.008249282836914062
1838.25675,0.010156631469726562
1840.209875,0.018358230590820312
1842.163,0.02689361572265625
1844.116125,0.029754638671875
1846.06925,0.03185272216796875
1848.022375,0.03719329833984375
1849.9755,0.03838539123535156
1851.928625,0.03523826599121094
1853.88175,0.0362396240234375
1855.834875,0.037479400634765625
1857.788,0.03743171691894531
1859.741125,0.038814544677734375
1861.69425,0.038051605224609375
1863.647375,0.035953521728515625
1865.6005,0.03495216369628906
1867.553625,0.03466606140136719
1869.50675,0.03590583801269531
1871.459875,0.03819465637207031
1873.413,0.03757476806640625
1875.366125,0.0331878662109375
1877.31925,0.029802322387695312
1879.272375,0.024747848510742188
1881.2255,0.018072128295898438
1883.178625,0.01678466796875
1885.13175,0.017118453979492188
1887.084875,0.016021728515625
1889.038,0.01811981201171875
1890.991125,0.019168853759765625
1892.94425,0.014591217041015625
1894.897375,0.010633468627929688
1896.8505,0.008106231689453125
1898.803625,0.0034332275390625
1900.75675,-0.0009059906005859375
1902.709875,-0.0015735626220703125
1904.663,0.0001430511474609375
1906.616125,-0.0010013580322265625
1908.56925,0.001621246337890625
1910.522375,0.0056743621826171875
1912.4755,0.002193450927734375
1914.428625,0.0030517578125
1916.38175,0.0076770782470703125
1918.334875,0.006389617919921875
1920.288,0.0013828277587890625
1922.241125,-0.0023365020751953125
1924.19425,-0.00171661376953125
1926.147375,-0.0009059906005859375
1928.1005,-0.00171661376953125
1930.053625,-0.0022411346435546875
1932.00675,-0.002574920654296875
1933.959875,-0.0009059906005859375
1935.913,0.0003814697265625
1937.866125,-0.0016689300537109375
1939.81925,-0.0041484832763671875
1941.772375,-0.00476837158203125
1943.7255,-0.0057697296142578125
1945.678625,-0.00553131103515625
1947.63175,-0.006103515625
1949.584875,-0.008869171142578125
1951.538,-0.009298324584960938
1953.491125,-0.0064849853515625
1955.44425,-0.0034809112548828125
1957.397375,-0.0035762786865234375
1959.3505,-0.0030040740966796875
1961.303625,-0.0010013580322265625
1963.25675,-0.002002716064453125
1965.209875,-0.001811981201171875
1967.163,0.0010013580322265625
1969.116125,0.000762939453125
1971.06925,-0.000667572021484375
1973.022375,0.00133514404296875
1974.9755,0.005340576171875
1976.928625,0.008106231689453125
1978.88175,0.01354217529296875
1980.834875,0.026941299438476562
1982.788,0.041675567626953125
1984.741125,0.05087852478027344
1986.69425,0.05946159362792969
1988.647375,0.06890296936035156
1990.6005,0.06866455078125
1992.553625,0.06775856018066406
1994.50675,0.0751495361328125
1996.459875,0.0732421875
1998.413,0.06914138793945312
2000.366125,0.07758140563964844
2002.31925,0.08463859558105469
2004.272375,0.09274482727050781
2006.2255,0.1064300537109375
2008.178625,0.1254558563232422
2010.13175,0.15730857849121094
2012.084875,0.18291473388671875
2014.038,0.193023681640625
2015.991125,0.19049644470214844
2017.94425,0.1677989959716797
2019.897375,0.14405250549316406
2021.8505,0.12083053588867188
2023.803625,0.07429122924804688
2025.75675,0.022077560424804688
2027.709875,-0.010204315185546875
2029.663,-0.02880096435546875
2031.616125,-0.03910064697265625
2033.56925,-0.042247772216796875
2035.522375,-0.04620552062988281
2037.4755,-0.04630088806152344
2039.428625,-0.03552436828613281
2041.38175,-0.028705596923828125
2043.334875,-0.030851364135742188
2045.288,-0.032520294189453125
2047.241125,-0.03299713134765625
2049.19425,-0.03132820129394531
2051.147375,-0.0213623046875
2053.1005,0.000858306884765625
2055.053625,0.02689361572265625
2057.00675,0.04658699035644531
2058.959875,0.06098747253417969
2060.913,0.07014274597167969
2062.866125,0.07328987121582031
2064.81925,0.07128715515136719
2066.772375,0.06399154663085938
2068.7255,0.05717277526855469
2070.678625,0.05555152893066406
2072.63175,0.05512237548828125
2074.584875,0.05345344543457031
2076.538,0.05011558532714844
2078.491125,0.04711151123046875
2080.44425,0.04916191101074219
2082.397375,0.05002021789550781
2084.3505,0.046634674072265625
2086.303625,0.04520416259765625
2088.25675,0.04477500915527344
2090.209875,0.04620552062988281
2092.163,0.0484466552734375
2094.116125,0.04935264587402344
2096.06925,0.04782676696777344
2098.022375,0.04420280456542969
2099.9755,0.04315376281738281
2101.928625,0.045108795166015625
2103.88175,0.046253204345703125
2105.834875,0.04425048828125
2107.788,0.04405975341796875
2109.741125,0.04544258117675781
2111.69425,0.04515647888183594
2113.647375,0.045490264892578125
2115.6005,0.04558563232421875
2117.553625,0.04553794860839844
2119.50675,0.046443939208984375
2121.459875,0.04734992980957031
2123.413,0.04596710205078125
2125.366125,0.04496574401855469
2127.31925,0.04792213439941406
2129.272375,0.046634674072265625
2131.2255,0.044918060302734375
2133.178625,0.04801750183105469
2135.13175,0.04687309265136719
2137.084875,0.046825408935546875
2139.038,0.05021095275878906
2140.991125,0.04935264587402344
2142.94425,0.048732757568359375
2144.897375,0.049591064453125
2146.8505,0.04954338073730469
2148.803625,0.05011558532714844
2150.75675,0.04868507385253906
2152.709875,0.0476837158203125
2154.663,0.051116943359375
2156.616125,0.05240440368652344
2158.56925,0.05130767822265625
2160.522375,0.051403045654296875
2162.4755,0.05092620849609375
2164.428625,0.053501129150390625
2166.38175,0.05669593811035156
2168.334875,0.05555152893066406
2170.288,0.054836273193359375
2172.241125,0.05574226379394531
2174.19425,0.0568389892578125
2176.147375,0.059223175048828125
2178.1005,0.06399154663085938
2180.053625,0.06322860717773438
2182.00675,0.058460235595703125
2183.959875,0.05950927734375
2185.913,0.06070137023925781
2187.866125,0.060558319091796875
2189.81925,0.061321258544921875
2191.772375,0.06155967712402344
2193.7255,0.06670951843261719
2195.678625,0.07348060607910156
2197.63175,0.07386207580566406
2199.584875,0.07224082946777344
2201.538,0.07262229919433594
2203.491125,0.07419586181640625
2205.44425,0.07843971252441406
2207.397375,0.08101463317871094
2209.3505,0.08234977722167969
2211.303625,0.087738037109375
2213.25675,0.08859634399414062
2215.209875,0.08721351623535156
2217.163,0.09374618530273438
2219.116125,0.09984970092773438
2221.06925,0.10094642639160156
2223.022375,0.10328292846679688
2224.9755,0.10538101196289062
2226.928625,0.10466575622558594
2228.88175,0.10528564453125
2230.834875,0.10962486267089844
2232.788,0.11363029479980469
2234.741125,0.11582374572753906
2236.69425,0.11835098266601562
2238.647375,0.11968612670898438
2240.6005,0.12059211730957031
2242.553625,0.12402534484863281
2244.50675,0.12946128845214844
2246.459875,0.13246536254882812
2248.413,0.13256072998046875
2250.366125,0.1349925994873047
2252.31925,0.1373767852783203
2254.272375,0.13723373413085938
2256.2255,0.13742446899414062
2258.178625,0.13794898986816406
2260.13175,0.14023780822753906
2262.084875,0.14057159423828125
2264.038,0.13790130615234375
2265.991125,0.1395702362060547
2267.94425,0.1430034637451172
2269.897375,0.1422405242919922
2271.8505,0.1391887664794922
2273.803625,0.13837814331054688
2275.75675,0.13761520385742188
2277.709875,0.13375282287597656
2279.663,0.13256072998046875
2281.616125,0.13246536254882812
2283.56925,0.13031959533691406
2285.522375,0.12869834899902344
2287.4755,0.1247406005859375
2289.428625,0.12097358703613281
2291.38175,0.11682510375976562
2293.334875,0.10972023010253906
2295.288,0.1056671142578125
2297.241125,0.10180473327636719
2299.19425,0.09517669677734375
2301.147375,0.08945465087890625
2303.1005,0.08311271667480469
2305.053625,0.07672309875488281
2307.00675,0.07100105285644531
2308.959875,0.0659942626953125
2310.913,0.062084197998046875
2312.866125,0.056743621826171875
2314.81925,0.0507354736328125
2316.772375,0.045108795166015625
2318.7255,0.04076957702636719
2320.678625,0.03604888916015625
2322.63175,0.030231475830078125
2324.584875,0.026369094848632812
2326.538,0.022220611572265625
2328.491125,0.018548965454101562
2330.44425,0.018167495727539062
2332.397375,0.014972686767578125
2334.3505,0.008487701416015625
2336.303625,0.005435943603515625
2338.25675,0.004482269287109375
2340.209875,0.000667572021484375
2342.163,-0.0037670135498046875
2344.116125,-0.004482269287109375
2346.06925,-0.005817413330078125
2348.022375,-0.010395050048828125
2349.9755,-0.013065338134765625
2351.928625,-0.013303756713867188
2353.88175,-0.013780593872070312
2355.834875,-0.01392364501953125
2357.788,-0.01430511474609375
2359.741125,-0.015306472778320312
2361.69425,-0.016546249389648438
2363.647375,-0.017118453979492188
2365.6005,-0.016117095947265625
2367.553625,-0.017499923706054688
2369.50675,-0.02002716064453125
2371.459875,-0.019073486328125
2373.413,-0.018453598022460938
2375.366125,-0.01811981201171875
2377.31925,-0.0186920166015625
2379.272375,-0.02002716064453125
2381.2255,-0.019121170043945312
2383.178625,-0.017881393432617188
2385.13175,-0.018310546875
2387.084875,-0.018215179443359375
2389.038,-0.016355514526367188
2390.991125,-0.018262863159179688
2392.94425,-0.020933151245117188
2394.897375,-0.018548965454101562
2396.8505,-0.018644332885742188
2398.803625,-0.021982192993164062
2400.75675,-0.019884109497070312
2402.709875,-0.017690658569335938
2404.663,-0.019693374633789062
2406.616125,-0.018405914306640625
2408.56925,-0.0152587890625
2410.522375,-0.016260147094726562
2412.4755,-0.017833709716796875
2414.428625,-0.016069412231445312
2416.38175,-0.014829635620117188
2418.334875,-0.0148773193359375
2420.288,-0.013971328735351562
2422.241125,-0.013875961303710938
2424.19425,-0.011157989501953125
2426.147375,-0.00858306884765625
2428.1005,-0.011491775512695312
2430.053625,-0.011730194091796875
2432.00675,-0.008249282836914062
2433.959875,-0.00896453857421875
2435.913,-0.009250640869140625
2437.866125,-0.005435943603515625
2439.81925,-0.0034332275390625
2441.772375,-0.005054473876953125
2443.7255,-0.008058547973632812
2445.678625,-0.008726119995117188
2447.63175,-0.008392333984375
2449.584875,-0.008106231689453125
2451.538,-0.0068187713623046875
2453.491125,-0.0072002410888671875
2455.44425,-0.0071048736572265625
2457.397375,-0.0072956085205078125
2459.3505,-0.008535385131835938
2461.303625,-0.008344650268554688
2463.25675,-0.009441375732421875
2465.209875,-0.00820159912109375
2467.163,-0.0056743621826171875
2469.116125,-0.00667572021484375
2471.06925,-0.0069141387939453125
2473.022375,-0.0060558319091796875
2474.9755,-0.0049591064453125
2476.928625,-0.0035762786865234375
2478.88175,-0.00457763671875
2480.834875,-0.0049114227294921875
2482.788,-0.0036716461181640625
2484.741125,-0.0034809112548828125
2486.69425,-0.00324249267578125
2488.647375,-0.0042438507080078125
2490.6005,-0.00629425048828125
2492.553625,-0.0047206878662109375
2494.50675,-0.0030994415283203125
2496.459875,-0.0058650970458984375
2498.413,-0.00762939453125
2500.366125,-0.00629425048828125
2502.31925,-0.008153915405273438
2504.272375,-0.01010894775390625
2506.2255,-0.008916854858398438
2508.178625,-0.0091552734375
2510.13175,-0.00782012939453125
2512.084875,-0.006771087646484375
2514.038,-0.007724761962890625
2515.991125,-0.0071048736572265625
2517.94425,-0.008296966552734375
2519.897375,-0.007724761962890625
2521.8505,-0.0062465667724609375
2523.803625,-0.008726119995117188
2525.75675,-0.008344650268554688
2527.709875,-0.0049114227294921875
2529.663,-0.00514984130859375
2531.616125,-0.008440017700195312
2533.56925,-0.009679794311523438
2535.522375,-0.00896453857421875
2537.4755,-0.009489059448242188
2539.428625,-0.009822845458984375
2541.38175,-0.009918212890625
2543.334875,-0.011301040649414062
2545.288,-0.0110626220703125
2547.241125,-0.009298324584960938
2549.19425,-0.009202957153320312
2551.147375,-0.010728836059570312
2553.1005,-0.011348724365234375
2555.053625,-0.01049041748046875
2557.00675,-0.009822845458984375
2558.959875,-0.009775161743164062
2560.913,-0.009965896606445312
2562.866125,-0.008440017700195312
2564.81925,-0.0069141387939453125
2566.772375,-0.008440017700195312
2568.7255,-0.0095367431640625
2570.678625,-0.009584426879882812
2572.63175,-0.010824203491210938
2574.584875,-0.010442733764648438
2576.538,-0.009393692016601562
2578.491125,-0.009012222290039062
2580.44425,-0.01087188720703125
2582.397375,-0.013828277587890625
2584.3505,-0.01087188720703125
2586.303625,-0.008344650268554688
2588.25675,-0.009965896606445312
2590.209875,-0.0087738037109375
2592.163,-0.008678436279296875
2594.116125,-0.0095367431640625
2596.06925,-0.00762939453125
2598.022375,-0.006103515625
2599.9755,-0.0053882598876953125
2601.928625,-0.00667572021484375
2603.88175,-0.00896453857421875
2605.834875,-0.008058547973632812
2607.788,-0.0077724456787109375
2609.741125,-0.008153915405273438
2611.69425,-0.00705718994140625
2613.647375,-0.006103515625
2615.6005,-0.0048160552978515625
2617.553625,-0.0077724456787109375
2619.50675,-0.009393692016601562
2621.459875,-0.0039577484130859375
2623.413,-0.0020503997802734375
2625.366125,-0.0056743621826171875
2627.31925,-0.008058547973632812
2629.272375,-0.0074863433837890625
2631.2255,-0.006866455078125
2633.178625,-0.008344650268554688
2635.13175,-0.0072956085205078125
2637.084875,-0.0069141387939453125
2639.038,-0.007724761962890625
2640.991475,-0.004291534423828125
2642.944418,-0.001621246337890625
2644.897361,-0.002956390380859375
2646.850304,-0.008058547973632812
2648.803247,-0.009298324584960938
2650.75619,-0.0063419342041015625
2652.709133,-0.008678436279296875
2654.662076,-0.009632110595703125
2656.615019,-0.008153915405273438
2658.567962,-0.007867813110351562
2660.520905,-0.004291534423828125
2662.473848,-0.002956390380859375
2664.426791,-0.0047206878662109375
2666.379734,-0.0045299530029296875
2668.332677,-0.0046253204345703125
2670.28562,-0.003147125244140625
2672.238563,-0.0012874603271484375
2674.191506,-0.004482269287109375
2676.144449,-0.0064849853515625
2678.097392,-0.003528594970703125
2680.050335,-0.0006198883056640625
2682.003278,-0.000286102294921875
2683.956221,-0.0042438507080078125
2685.909164,-0.0072479248046875
2687.862107,-0.0051021575927734375
2689.81505,-0.0035762786865234375
2691.767993,-0.003528594970703125
2693.720936,-0.00247955322265625
2695.673879,-0.0011920928955078125
2697.626822,-0.001811981201171875
2699.579765,-0.0048160552978515625
2701.532708,-0.0048160552978515625
2703.485651,-0.0038623809814453125
2705.438594,-0.00553131103515625
2707.391537,-0.004100799560546875
2709.34448,-0.002956390380859375
2711.297423,-0.0050067901611328125
2713.250366,-0.0030517578125
2715.203309,-0.000762939453125
2717.156252,-0.004100799560546875
2719.109195,-0.0057220458984375
2721.062138,-0.002765655517578125
2723.015081,-0.0021457672119140625
2724.968024,-0.0027179718017578125
2726.920967,-0.0008106231689453125
2728.87391,-0.0005245208740234375
2730.826853,-0.0006198883056640625
2732.779796,0.0017642974853515625
2734.732739,0.0019073486328125
2736.685682,-0.0006198883056640625
2738.638625,0.0014781951904296875
2740.591568,0.004482269287109375
2742.544511,0.001430511474609375
2744.497454,-0.0003337860107421875
2746.450397,0.0008106231689453125
2748.40334,9.5367431640625e-05
2750.356283,-0.0005245208740234375
2752.309226,-0.0011444091796875
2754.262169,-0.001811981201171875
2756.215112,0.0009059906005859375
2758.168055,0.0034332275390625
2760.120998,0.00476837158203125
2762.073941,0.0044345855712890625
2764.026884,0.001621246337890625
2765.979827,0.0027179718017578125
2767.93277,0.0051021575927734375
2769.885713,0.0012874603271484375
2771.838656,-0.0017642974853515625
2773.791599,-0.0012874603271484375
2775.744542,0.0
2777.697485,0.002002716064453125
2779.650428,0.0035762786865234375
2781.603371,0.004100799560546875
2783.556314,0.0030994415283203125
2785.509257,0.003814697265625
2787.4622,0.00667572021484375
2789.415143,0.006866455078125
2791.368086,0.0071048736572265625
2793.321029,0.008058547973632812
2795.273972,0.005817413330078125
2797.226915,0.0041484832763671875
2799.179858,0.0067234039306640625
2801.132801,0.009441375732421875
2803.085744,0.00705718994140625
2805.038687,0.004863739013671875
2806.99163,0.0053882598876953125
2808.944573,0.0017642974853515625
2810.897516,0.0017642974853515625
2812.850459,0.0062465667724609375
2814.803402,0.003528594970703125
2816.756345,0.0008106231689453125
2818.709288,0.004482269287109375
2820.662231,0.006580352783203125
2822.615174,0.0051975250244140625
2824.568117,0.005817413330078125
2826.52106,0.008296966552734375
2828.474003,0.008869171142578125
2830.426946,0.008440017700195312
2832.379889,0.008678436279296875
2834.332832,0.008821487426757812
2836.285775,0.0065326690673828125
2838.238718,0.009918212890625
2840.191661,0.015926361083984375
2842.144604,0.013208389282226562
2844.097547,0.010967254638671875
2846.05049,0.012350082397460938
2848.003433,0.011444091796875
2849.956376,0.012874603271484375
2851.909319,0.019693374633789062
2853.862262,0.028514862060546875
2855.815205,0.03447532653808594
2857.768148,0.038242340087890625
2859.721091,0.03895759582519531
2861.674034,0.0354766845703125
2863.626977,0.036144256591796875
2865.57992,0.04048347473144531
2867.532863,0.03848075866699219
2869.485806,0.036144256591796875
2871.438749,0.03981590270996094
2873.391692,0.03895759582519531
2875.344635,0.03523826599121094
2877.297578,0.03871917724609375
2879.250521,0.04096031188964844
2881.203464,0.03819465637207031
2883.156407,0.03771781921386719
2885.10935,0.035953521728515625
2887.062293,0.03132820129394531
2889.015236,0.026941299438476562
2890.968179,0.020551681518554688
2892.921122,0.015211105346679688
2894.874065,0.0152587890625
2896.827008,0.01678466796875
2898.779951,0.017213821411132812
2900.732894,0.014495849609375
2902.685837,0.007343292236328125
2904.63878,0.002384185791015625
2906.591723,0.000476837158203125
2908.544666,-0.0005245208740234375
2910.497609,0.0008106231689453125
2912.450552,0.000286102294921875
2914.403495,-0.0014781951904296875
2916.356438,-0.0024318695068359375
2918.309381,-0.0030517578125
2920.262324,-0.0003814697265625
2922.215267,0.0023365020751953125
2924.16821,0.00171661376953125
2926.121153,0.0018596649169921875
2928.074096,0.0012874603271484375
2930.027039,-0.00247955322265625
2931.979982,-0.0047206878662109375
2933.932925,-0.0037670135498046875
2935.885868,-0.0042438507080078125
2937.838811,-0.0057697296142578125
2939.791754,-0.007152557373046875
2941.744697,-0.009632110595703125
2943.69764,-0.008678436279296875
2945.650583,-0.0057220458984375
2947.603526,-0.00667572021484375
2949.556469,-0.007724761962890625
2951.509412,-0.0064849853515625
2953.462355,-0.0067234039306640625
2955.415298,-0.008726119995117188
2957.368241,-0.00782012939453125
2959.321184,-0.005626678466796875
2961.274127,-0.0068187713623046875
2963.22707,-0.008296966552734375
2965.180013,-0.006389617919921875
2967.132956,-0.0028133392333984375
2969.085899,-0.00152587890625
2971.038842,-0.0030994415283203125
2972.991785,-0.003337860107421875
2974.944728,-0.00286102294921875
2976.897671,-0.003910064697265625
2978.850614,-0.003528594970703125
2980.803557,-0.001621246337890625
2982.7565,0.0005245208740234375
2984.709443,0.0038623809814453125
2986.662386,0.008535385131835938
2988.615329,0.0148773193359375
2990.568272,0.0247955322265625
2992.521215,0.03848075866699219
2994.474158,0.05049705505371094
2996.427101,0.05908012390136719
2998.380044,0.06647109985351562
3000.332987,0.06780624389648438
3002.28593,0.06918907165527344
3004.238873,0.07109642028808594
3006.191816,0.06427764892578125
3008.144759,0.06375312805175781
3010.097702,0.07290840148925781
3012.050645,0.08182525634765625
3014.003588,0.09570121765136719
3015.956531,0.10633468627929688
3017.909474,0.12059211730957031
3019.862417,0.15282630920410156
3021.81536,0.1766681671142578
3023.768303,0.18105506896972656
3025.721246,0.17499923706054688
3027.674189,0.15845298767089844
3029.627132,0.13942718505859375
3031.580075,0.10995864868164062
3033.533018,0.06046295166015625
3035.485961,0.016736984252929688
3037.438904,-0.00553131103515625
3039.391847,-0.020313262939453125
3041.34479,-0.03223419189453125
3043.297733,-0.03833770751953125
3045.250676,-0.04220008850097656
3047.203619,-0.04024505615234375
3049.156562,-0.03247261047363281
3051.109505,-0.031042098999023438
3053.062448,-0.03457069396972656
3055.015391,-0.03781318664550781
3056.968334,-0.04487037658691406
3058.921277,-0.046062469482421875
3060.87422,-0.03414154052734375
3062.827163,-0.018072128295898438
3064.780106,0.0010967254638671875
3066.733049,0.02346038818359375
3068.685992,0.040149688720703125
3070.638935,0.051403045654296875
3072.591878,0.059413909912109375
3074.544821,0.06003379821777344
3076.497764,0.05469322204589844
3078.450707,0.04935264587402344
3080.40365,0.04935264587402344
3082.356593,0.053882598876953125
3084.309536,0.05526542663574219
3086.262479,0.05249977111816406
3088.215422,0.049591064453125
3090.168365,0.047206878662109375
3092.121308,0.04425048828125
3094.074251,0.04520416259765625
3096.027194,0.04820823669433594
3097.980137,0.04634857177734375
3099.93308,0.044536590576171875
3101.886023,0.043201446533203125
3103.838966,0.04172325134277344
3105.791909,0.04487037658691406
3107.744852,0.046825408935546875
3109.697795,0.046253204345703125
3111.650738,0.048160552978515625
3113.603681,0.04906654357910156
3115.556624,0.04901885986328125
3117.509567,0.048351287841796875
3119.46251,0.046443939208984375
3121.415453,0.046825408935546875
3123.368396,0.04978179931640625
3125.321339,0.04935264587402344
3127.274282,0.047397613525390625
3129.227225,0.051403045654296875
3131.180168,0.053310394287109375
3133.133111,0.049686431884765625
3135.086054,0.05054473876953125
3137.038997,0.05393028259277344
3138.99194,0.05517005920410156
3140.944883,0.05536079406738281
3142.897826,0.05373954772949219
3144.850769,0.0537872314453125
3146.803712,0.055980682373046875
3148.756655,0.05593299865722656
3150.709598,0.05564689636230469
3152.662541,0.05555152893066406
3154.615484,0.055027008056640625
3156.568427,0.054454803466796875
3158.52137,0.05459785461425781
3160.474313,0.056362152099609375
3162.427256,0.05645751953125
3164.380199,0.05526542663574219
3166.333142,0.05545616149902344
3168.286085,0.05745887756347656
3170.239028,0.0583648681640625
3172.191971,0.058269500732421875
3174.144914,0.06103515625
3176.097857,0.06194114685058594
3178.0508,0.059986114501953125
3180.003743,0.0606536865234375
3181.956686,0.06122589111328125
3183.909629,0.0606536865234375
3185.862572,0.06308555603027344
3187.815515,0.06604194641113281
3189.768458,0.06394386291503906
3191.721401,0.06341934204101562
3193.674344,0.067138671875
3195.627287,0.06732940673828125
3197.58023,0.06542205810546875
3199.533173,0.06732940673828125
3201.486116,0.07114410400390625
3203.439059,0.07109642028808594
3205.392002,0.07047653198242188
3207.344945,0.07238388061523438
3209.297888,0.07452964782714844
3211.250831,0.08025169372558594
3213.203774,0.08478164672851562
3215.156717,0.08244514465332031
3217.10966,0.08034706115722656
3219.062603,0.08182525634765625
3221.015546,0.08411407470703125
3222.968489,0.087738037109375
3224.921432,0.09145736694335938
3226.874375,0.09140968322753906
3228.827318,0.09417533874511719
3230.780261,0.09946823120117188
3232.733204,0.09908676147460938
3234.686147,0.09875297546386719
3236.63909,0.10190010070800781
3238.592033,0.10519027709960938
3240.544976,0.10962486267089844
3242.497919,0.11372566223144531
3244.450862,0.11458396911621094
3246.403805,0.11553764343261719
3248.356748,0.11849403381347656
3250.309691,0.12106895446777344
3252.262634,0.12431144714355469
3254.215577,0.12755393981933594
3256.16852,0.12722015380859375
3258.121463,0.1273632049560547
3260.074406,0.13136863708496094
3262.027349,0.13408660888671875
3263.980292,0.13451576232910156
3265.933235,0.135040283203125
3267.886178,0.13566017150878906
3269.839121,0.1373767852783203
3271.792064,0.13828277587890625
3273.745007,0.13637542724609375
3275.69795,0.138092041015625
3277.650893,0.14395713806152344
3279.603836,0.14209747314453125
3281.556779,0.13580322265625
3283.509722,0.131988525390625
3285.462665,0.12760162353515625
3287.415608,0.12865066528320312
3289.368551,0.1323699951171875
3291.321494,0.1273632049560547
3293.274437,0.12187957763671875
3295.22738,0.12083053588867188
3297.180323,0.11816024780273438
3299.133266,0.11615753173828125
3301.086209,0.11200904846191406
3303.039152,0.10709762573242188
3304.992095,0.1071929931640625
3306.945038,0.10128021240234375
3308.897981,0.09179115295410156
3310.850924,0.09026527404785156
3312.803867,0.08726119995117188
3314.75681,0.08044242858886719
3316.709753,0.07753372192382812
3318.662696,0.07061958312988281
3320.615639,0.063323974609375
3322.568582,0.06318092346191406
3324.521525,0.05869865417480469
3326.474468,0.051593780517578125
3328.427411,0.04782676696777344
3330.380354,0.04220008850097656
3332.333297,0.03581047058105469
3334.28624,0.03204345703125
3336.239183,0.029420852661132812
3338.192126,0.0263214111328125
3340.145069,0.02288818359375
3342.098012,0.019073486328125
3344.050955,0.014829635620117188
3346.003898,0.011396408081054688
3347.956841,0.009012222290039062
3349.909784,0.008440017700195312
3351.862727,0.003528594970703125
3353.81567,-0.0018596649169921875
3355.768613,-0.0002384185791015625
3357.721556,-0.0014781951904296875
3359.674499,-0.004673004150390625
3361.627442,-0.003719329833984375
3363.580385,-0.0038623809814453125
3365.533328,-0.0059604644775390625
3367.486271,-0.0060558319091796875
3369.439214,-0.0059604644775390625
3371.392157,-0.008344650268554688
3373.3451,-0.008630752563476562
3375.298043,-0.007152557373046875
3377.250986,-0.0069141387939453125
3379.203929,-0.006866455078125
3381.156872,-0.0091552734375
3383.109815,-0.013303756713867188
3385.062758,-0.01468658447265625
3387.015701,-0.01468658447265625
3388.968644,-0.015163421630859375
3390.921587,-0.015163421630859375
3392.87453,-0.014781951904296875
3394.827473,-0.014352798461914062
3396.780416,-0.01373291015625
3398.733359,-0.013303756713867188
3400.686302,-0.013065338134765625
3402.639245,-0.012350082397460938
3404.592188,-0.011587142944335938
3406.545131,-0.010395050048828125
3408.498074,-0.009393692016601562
3410.451017,-0.008726119995117188
3412.40396,-0.0064373016357421875
3414.356903,-0.0071048736572265625
3416.309846,-0.009822845458984375
3418.262789,-0.009250640869140625
3420.215732,-0.008916854858398438
3422.168675,-0.009441375732421875
3424.121618,-0.008678436279296875
3426.074561,-0.0064373016357421875
3428.027504,-0.0038623809814453125
3429.980447,-0.0039577484130859375
3431.93339,-0.0064373016357421875
3433.886333,-0.0053882598876953125
3435.839276,-0.0034332275390625
3437.792219,-0.00438690185546875
3439.745162,-0.004291534423828125
3441.698105,-0.002193450927734375
3443.651048,0.000476837158203125
3445.603991,0.001811981201171875
3447.556934,0.0019073486328125
3449.509877,0.0014781951904296875
3451.46282,0.0001430511474609375
3453.415763,-0.00019073486328125
3455.368706,-0.001430511474609375
3457.321649,-0.004482269287109375
3459.274592,-0.002384185791015625
3461.227535,0.0011920928955078125
3463.180478,-0.001049041748046875
3465.133421,-0.00247955322265625
3467.086364,0.0002384185791015625
3469.039307,-0.0006198883056640625
3470.99225,-0.003337860107421875
3472.945193,-0.002288818359375
3474.898136,-0.00152587890625
3476.851079,0.00133514404296875
3478.804022,0.0048160552978515625
3480.756965,0.0031948089599609375
3482.709908,0.0032901763916015625
3484.662851,0.004291534423828125
3486.615794,0.003814697265625
3488.568737,0.0052928924560546875
3490.52168,0.0073909759521484375
3492.474623,0.0067234039306640625
3494.427566,0.004673004150390625
3496.380509,0.00514984130859375
3498.333452,0.0057220458984375
3500.286395,0.0059604644775390625
3502.239338,0.0044345855712890625
3504.192281,0.0029087066650390625
3506.145224,0.0038623809814453125
3508.098167,0.0024318695068359375
3510.05111,0.002288818359375
3512.004053,0.0030517578125
3513.956996,0.00247955322265625
3515.909939,0.00133514404296875
3517.862882,-0.0006198883056640625
3519.815825,0.0028133392333984375
3521.768768,0.0049591064453125
3523.721711,0.0003337860107421875
3525.674654,-0.000762939453125
3527.627597,0.004673004150390625
3529.58054,0.006961822509765625
3531.533483,0.003719329833984375
3533.486426,0.0005245208740234375
3535.439369,-0.0029087066650390625
3537.392312,-0.0037670135498046875
3539.345255,-0.001811981201171875
3541.298198,-0.0026702880859375
3543.251141,-0.0040531158447265625
3545.204084,-0.002765655517578125
3547.157027,-0.00152587890625
3549.10997,-0.0003814697265625
3551.062913,0.0001430511474609375
3553.015856,-0.0013828277587890625
3554.968799,-0.0030040740966796875
3556.921742,-0.00209808349609375
3558.874685,-0.0028133392333984375
3560.827628,-0.0061511993408203125
3562.780571,-0.0046253204345703125
3564.733514,-0.0033855438232421875
3566.686457,-0.0046253204345703125
3568.6394,-0.000858306884765625
3570.592343,0.00171661376953125
3572.545286,-0.0006198883056640625
3574.498229,-0.004863739013671875
3576.451172,-0.0057220458984375
3578.404115,-0.0034809112548828125
3580.357058,-0.0037670135498046875
3582.310001,-0.0032901763916015625
3584.262944,-0.0027179718017578125
3586.215887,-0.0039577484130859375
3588.16883,-0.004100799560546875
3590.121773,-0.0046253204345703125
3592.074716,-0.0051021575927734375
3594.027659,-0.00247955322265625
3595.980602,-0.001621246337890625
3597.933545,-0.0025272369384765625
3599.886488,0.0007152557373046875
3601.839431,0.0026226043701171875
3603.792374,0.0014781951904296875
3605.745317,0.0005245208740234375
3607.69826,-0.0010967254638671875
3609.651203,-0.0001430511474609375
3611.604146,0.0018596649169921875
3613.557089,0.002193450927734375
3615.510032,0.0024318695068359375
3617.462975,0.0014781951904296875
3619.415918,0.0007152557373046875
3621.368861,0.0006198883056640625
3623.321804,-0.0017642974853515625
3625.274747,-0.00438690185546875
3627.22769,-0.00324249267578125
3629.180633,-0.0047206878662109375
3631.133576,-0.008869171142578125
3633.086519,-0.0059604644775390625
3635.039462,-0.0023365020751953125
3636.992405,0.0006198883056640625
3638.945348,0.00457763671875
3640.898291,0.0030994415283203125
3642.851234,0.000858306884765625
3644.804177,-0.0012874603271484375
3646.75712,-0.0026226043701171875
3648.710063,-0.00133514404296875
3650.663006,-0.0010013580322265625
3652.615949,0.00133514404296875
3654.568892,0.002765655517578125
3656.521835,0.000476837158203125
3658.474778,-0.0001430511474609375
3660.427721,0.0003814697265625
3662.380664,-0.001049041748046875
3664.333607,-0.0010967254638671875
3666.28655,0.0019550323486328125
3668.239493,0.0022411346435546875
3670.192436,0.001430511474609375
3672.145379,0.0045299530029296875
3674.098322,0.0047206878662109375
3676.051265,0.0019073486328125
3678.004208,0.00286102294921875
3679.957151,0.0040531158447265625
3681.910094,0.003719329833984375
3683.863037,0.00476837158203125
3685.81598,0.0051021575927734375
3687.768923,0.0016689300537109375
3689.721866,-0.0012874603271484375
3691.674809,0.001049041748046875
3693.627752,0.00438690185546875
3695.580695,0.005340576171875
3697.533638,0.0066280364990234375
3699.486581,0.0072002410888671875
3701.439524,0.0037670135498046875
3703.392467,0.000667572021484375
3705.34541,0.001811981201171875
3707.298353,0.00438690185546875
3709.251296,0.0058650970458984375
3711.204239,0.009965896606445312
3713.157182,0.01220703125
3715.110125,0.0073909759521484375
3717.063068,0.0077724456787109375
3719.016011,0.011873245239257812
3720.968954,0.009918212890625
3722.921897,0.007343292236328125
3724.87484,0.0063419342041015625
3726.827783,0.008869171142578125
3728.780726,0.011491775512695312
3730.733669,0.008249282836914062
3732.686612,0.0061511993408203125
3734.639555,0.006103515625
3736.592498,0.005817413330078125
3738.545441,0.0076770782470703125
3740.498384,0.0110626220703125
3742.451327,0.014448165893554688
3744.40427,0.01544952392578125
3746.357213,0.01373291015625
3748.310156,0.012111663818359375
3750.263099,0.010919570922851562
3752.216042,0.0110626220703125
3754.168985,0.013113021850585938
3756.121928,0.01277923583984375
3758.074871,0.012350082397460938
3760.027814,0.014925003051757812
3761.980757,0.014448165893554688
3763.9337,0.013589859008789062
3765.886643,0.01354217529296875
3767.839586,0.010442733764648438
3769.792529,0.008678436279296875
3771.745472,0.011348724365234375
3773.698415,0.015497207641601562
3775.651358,0.016260147094726562
3777.604301,0.01354217529296875
3779.557244,0.011587142944335938
3781.510187,0.011157989501953125
3783.46313,0.012969970703125
3785.416073,0.01316070556640625
3787.369016,0.010728836059570312
3789.321959,0.01354217529296875
3791.274902,0.016069412231445312
3793.227845,0.012874603271484375
3795.180788,0.01316070556640625
3797.133731,0.015401840209960938
3799.086674,0.016164779663085938
3801.039617,0.01506805419921875
3802.99256,0.011205673217773438
3804.945503,0.008726119995117188
3806.898446,0.009393692016601562
3808.851389,0.011396408081054688
3810.804332,0.012683868408203125
3812.757275,0.013780593872070312
3814.710218,0.014400482177734375
3816.663161,0.01506805419921875
3818.616104,0.016117095947265625
3820.569047,0.01506805419921875
3822.52199,0.014781951904296875
3824.474933,0.014781951904296875
3826.427876,0.014734268188476562
3828.380819,0.016164779663085938
3830.333762,0.015163421630859375
3832.286705,0.01544952392578125
3834.239648,0.017547607421875
3836.192591,0.016450881958007812
3838.145534,0.015783309936523438
3840.098477,0.01468658447265625
3842.05142,0.011968612670898438
3844.004363,0.012445449829101562
3845.957306,0.014019012451171875
3847.910249,0.0125885009765625
3849.863192,0.010824203491210938
3851.816135,0.011014938354492188
3853.769078,0.011396408081054688
3855.722021,0.01125335693359375
3857.674964,0.01125335693359375
3859.627907,0.01316070556640625
3861.58085,0.018215179443359375
3863.533793,0.022029876708984375
3865.486736,0.019598007202148438
3867.439679,0.01506805419921875
3869.392622,0.013828277587890625
3871.345565,0.014448165893554688
3873.298508,0.016021728515625
3875.251451,0.020170211791992188
3877.204394,0.026941299438476562
3879.157337,0.033855438232421875
3881.11028,0.04100799560546875
3883.063223,0.047206878662109375
3885.016166,0.04363059997558594
3886.969109,0.03533363342285156
3888.922052,0.0331878662109375
3890.874995,0.033283233642578125
3892.827938,0.03523826599121094
3894.780881,0.03914833068847656
3896.733824,0.0396728515625
3898.686767,0.038909912109375
3900.63971,0.03991127014160156
3902.592653,0.04105567932128906
3904.545596,0.04057884216308594
3906.498539,0.04248619079589844
3908.451482,0.04711151123046875
3910.404425,0.04754066467285156
3912.357368,0.04229545593261719
3914.310311,0.03590583801269531
3916.263254,0.030374526977539062
3918.216197,0.025129318237304688
3920.16914,0.023889541625976562
3922.122083,0.025224685668945312
3924.075026,0.022268295288085938
3926.027969,0.017881393432617188
3927.980912,0.01583099365234375
3929.933855,0.014209747314453125
3931.886798,0.011968612670898438
3933.839741,0.008392333984375
3935.792684,0.0035762786865234375
3937.745627,0.0021457672119140625
3939.69857,0.003814697265625
3941.651513,0.00400543212890625
3943.604456,0.00400543212890625
3945.557399,0.0003814697265625
3947.510342,-0.003719329833984375
3949.463285,0.000858306884765625
3951.416228,0.0032901763916015625
3953.369171,-0.0026702880859375
3955.322114,-0.0048160552978515625
3957.275057,-0.0021457672119140625
3959.228,-0.0016689300537109375
3961.181625,0.0022411346435546875
3963.13475,0.006866455078125
3965.087875,0.00152587890625
3967.041,-0.00457763671875
3968.994125,-0.00286102294921875
3970.94725,0.000762939453125
3972.900375,0.002002716064453125
3974.8535,-0.0007152557373046875
3976.806625,-0.002193450927734375
3978.75975,0.0016689300537109375
3980.712875,0.003528594970703125
3982.666,-4.76837158203125e-05
3984.619125,-0.0034332275390625
3986.57225,-0.001049041748046875
3988.525375,0.00133514404296875
3990.4785,-0.00057220458984375
3992.431625,0.0019550323486328125
3994.38475,0.003528594970703125
3996.337875,0.0012874603271484375
3998.291,0.0027179718017578125
4000.244125,0.0022411346435546875
4002.19725,0.001621246337890625
4004.150375,0.0048160552978515625
4006.1035,0.00553131103515625
4008.056625,0.0057697296142578125
4010.00975,0.010347366333007812
4011.962875,0.013685226440429688
4013.916,0.016546249389648438
4015.869125,0.029993057250976562
4017.82225,0.04563331604003906
4019.775375,0.050449371337890625
4021.7285,0.053119659423828125
4023.681625,0.05984306335449219
4025.63475,0.06642341613769531
4027.587875,0.06890296936035156
4029.541,0.069427490234375
4031.494125,0.07123947143554688
4033.44725,0.07152557373046875
4035.400375,0.07925033569335938
4037.3535,0.10266304016113281
4039.306625,0.124359130859375
4041.25975,0.12984275817871094
4043.212875,0.14429092407226562
4045.166,0.1773357391357422
4047.119125,0.1956939697265625
4049.07225,0.19240379333496094
4051.025375,0.1819133758544922
4052.9785,0.1720428466796875
4054.931625,0.156402587890625
4056.88475,0.12288093566894531
4058.837875,0.09026527404785156
4060.791,0.06694793701171875
4062.744125,0.04062652587890625
4064.69725,0.021839141845703125
4066.650375,0.014400482177734375
4068.6035,0.0040531158447265625
4070.556625,-0.00629425048828125
4072.50975,-0.0030040740966796875
4074.462875,0.0010967254638671875
4076.416,-0.010347366333007812
4078.369125,-0.01964569091796875
4080.32225,-0.017547607421875
4082.275375,-0.018739700317382812
4084.2285,-0.02231597900390625
4086.181625,-0.02460479736328125
4088.13475,-0.027036666870117188
4090.087875,-0.022554397583007812
4092.041,-0.016498565673828125
4093.994125,-0.00743865966796875
4095.94725,0.01220703125
4097.900375,0.0286102294921875
4099.8535,0.03261566162109375
4101.806625,0.03495216369628906
4103.75975,0.037479400634765625
4105.712875,0.035381317138671875
4107.666,0.034809112548828125
4109.619125,0.037288665771484375
4111.57225,0.04100799560546875
4113.525375,0.0431060791015625
4115.4785,0.03933906555175781
4117.431625,0.03657341003417969
4119.38475,0.03604888916015625
4121.337875,0.03552436828613281
4123.291,0.038051605224609375
4125.244125,0.04019737243652344
4127.19725,0.04172325134277344
4129.150375,0.04229545593261719
4131.1035,0.03867149353027344
4133.056625,0.0370025634765625
4135.00975,0.038623809814453125
4136.962875,0.038433074951171875
4138.916,0.037288665771484375
4140.869125,0.037097930908203125
4142.82225,0.03533363342285156
4144.775375,0.034999847412109375
4146.7285,0.039005279541015625
4148.681625,0.04086494445800781
4150.63475,0.03814697265625
4152.587875,0.03509521484375
4154.541,0.034427642822265625
4156.494125,0.03581047058105469
4158.44725,0.037479400634765625
4160.400375,0.039386749267578125
4162.3535,0.03895759582519531
4164.306625,0.03333091735839844
4166.25975,0.030279159545898438
4168.212875,0.03509521484375
4170.166,0.039958953857421875
4172.119125,0.040721893310546875
4174.07225,0.042438507080078125
4176.025375,0.042438507080078125
4177.9785,0.036907196044921875
4179.931625,0.03428459167480469
4181.88475,0.03657341003417969
4183.837875,0.0396728515625
4185.791,0.04096031188964844
4187.744125,0.04019737243652344
4189.69725,0.042247772216796875
4191.650375,0.04315376281738281
4193.6035,0.04038810729980469
4195.556625,0.04315376281738281
4197.50975,0.046253204345703125
4199.462875,0.04248619079589844
4201.416,0.0438690185546875
4203.369125,0.04611015319824219
4205.32225,0.040149688720703125
4207.275375,0.03867149353027344
4209.2285,0.04258155822753906
4211.181625,0.042057037353515625
4213.13475,0.03948211669921875
4215.087875,0.04096031188964844
4217.041,0.0431060791015625
4218.994125,0.04425048828125
4220.94725,0.04782676696777344
4222.900375,0.048065185546875
4224.8535,0.04730224609375
4226.806625,0.051593780517578125
4228.75975,0.05359649658203125
4230.712875,0.053691864013671875
4232.666,0.05488395690917969
4234.619125,0.05402565002441406
4236.57225,0.05335807800292969
4238.525375,0.054931640625
4240.4785,0.05888938903808594
4242.431625,0.06279945373535156
4244.38475,0.06437301635742188
4246.337875,0.06647109985351562
4248.291,0.06690025329589844
4250.244125,0.06461143493652344
4252.19725,0.06623268127441406
4254.150375,0.07052421569824219
4256.1035,0.07205009460449219
4258.056625,0.07233619689941406
4260.00975,0.07572174072265625
4261.962875,0.08091926574707031
4263.916,0.08120536804199219
4265.869125,0.08001327514648438
4267.82225,0.08187294006347656
4269.775375,0.08101463317871094
4271.7285,0.0820159912109375
4273.681625,0.08740425109863281
4275.63475,0.09098052978515625
4277.587875,0.09446144104003906
4279.541,0.09508132934570312
4281.494125,0.09303092956542969
4283.44725,0.09388923645019531
4285.400375,0.09393692016601562
4287.3535,0.09617805480957031
4289.306625,0.09870529174804688
4291.25975,0.09765625
4293.212875,0.10428428649902344
4295.166,0.10838508605957031
4297.119125,0.10404586791992188
4299.07225,0.10371208190917969
4301.025375,0.09946823120117188
4302.9785,0.09632110595703125
4304.931625,0.10156631469726562
4306.88475,0.10051727294921875
4308.837875,0.09675025939941406
4310.791,0.09894371032714844
4312.744125,0.10166168212890625
4314.69725,0.10094642639160156
4316.650375,0.09832382202148438
4318.6035,0.09450912475585938
4320.556625,0.09350776672363281
4322.50975,0.09641647338867188
4324.462875,0.09245872497558594
4326.416,0.08807182312011719
4328.369125,0.08635520935058594
4330.32225,0.07905960083007812
4332.275375,0.07476806640625
4334.2285,0.07309913635253906
4336.181625,0.06852149963378906
4338.13475,0.06489753723144531
4340.087875,0.06275177001953125
4342.041,0.062084197998046875
4343.994125,0.05888938903808594
4345.94725,0.0530242919921875
4347.900375,0.049114227294921875
4349.8535,0.04482269287109375
4351.806625,0.04172325134277344
4353.75975,0.04229545593261719
4355.712875,0.03838539123535156
4357.666,0.030040740966796875
4359.619125,0.023174285888671875
4361.57225,0.017261505126953125
4363.525375,0.01659393310546875
4365.4785,0.017213821411132812
4367.431625,0.014543533325195312
4369.38475,0.012922286987304688
4371.337875,0.009393692016601562
4373.291,0.0049114227294921875
4375.244125,0.0042438507080078125
4377.19725,0.0024318695068359375
4379.150375,-4.76837158203125e-05
4381.1035,-0.00019073486328125
4383.056625,-0.0029087066650390625
4385.00975,-0.0054836273193359375
4386.962875,-0.0036716461181640625
4388.916,-0.004673004150390625
4390.869125,-0.0063419342041015625
4392.82225,-0.0025272369384765625
4394.775375,-0.0055789947509765625
4396.7285,-0.011968612670898438
4398.681625,-0.008440017700195312
4400.63475,-0.00820159912109375
4402.587875,-0.011777877807617188
4404.541,-0.009632110595703125
4406.494125,-0.010633468627929688
4408.44725,-0.0141143798828125
4410.400375,-0.014638900756835938
4412.3535,-0.0148773193359375
4414.306625,-0.015020370483398438
4416.25975,-0.01316070556640625
4418.212875,-0.012969970703125
4420.166,-0.014400482177734375
4422.119125,-0.010776519775390625
4424.07225,-0.00782012939453125
4426.025375,-0.010251998901367188
4427.9785,-0.0091552734375
4429.931625,-0.0068187713623046875
4431.88475,-0.009202957153320312
4433.837875,-0.012826919555664062
4435.791,-0.015401840209960938
4437.744125,-0.012063980102539062
4439.69725,-0.005626678466796875
4441.650375,-0.008106231689453125
4443.6035,-0.012063980102539062
4445.556625,-0.0061511993408203125
4447.50975,9.5367431640625e-05
4449.462875,-0.0027179718017578125
4451.416,-0.007343292236328125
4453.369125,-0.006961822509765625
4455.32225,-0.0051021575927734375
4457.275375,-0.0034332275390625
4459.2285,-0.0027179718017578125
4461.181625,-0.00591278076171875
4463.13475,-0.0071048736572265625
4465.087875,-0.0026702880859375
4467.041,-0.0003337860107421875
4468.994125,-0.002193450927734375
4470.94725,-0.0048160552978515625
4472.900375,-0.0064849853515625
4474.8535,-0.0075817108154296875
4476.806625,-0.0069141387939453125
4478.75975,-0.008344650268554688
4480.712875,-0.009870529174804688
4482.666,-0.003147125244140625
4484.619125,-0.0030040740966796875
4486.57225,-0.008487701416015625
4488.525375,-0.0034332275390625
4490.4785,-0.0024318695068359375
4492.431625,-0.0062465667724609375
4494.38475,-0.0010013580322265625
4496.337875,0.0025272369384765625
4498.291,-0.003910064697265625
4500.244125,-0.010013580322265625
4502.19725,-0.010395050048828125
4504.150375,-0.0091552734375
4506.1035,-0.007534027099609375
4508.056625,-0.00667572021484375
4510.00975,-0.0065326690673828125
4511.962875,-0.002956390380859375
4513.916,-0.0028133392333984375
4515.869125,-0.0070095062255859375
4517.82225,-0.0055789947509765625
4519.775375,-0.0049591064453125
4521.7285,-0.0060558319091796875
4523.681625,-0.0013828277587890625
4525.63475,0.001239776611328125
4527.587875,-0.00057220458984375
4529.541,-0.0023365020751953125
4531.494125,-0.003147125244140625
4533.44725,-0.002574920654296875
4535.400375,-0.0061511993408203125
4537.3535,-0.011491775512695312
4539.306625,-0.0071048736572265625
4541.25975,0.0029087066650390625
4543.212875,0.00152587890625
4545.166,-0.00820159912109375
4547.119125,-0.009441375732421875
4549.07225,-0.0068187713623046875
4551.025375,-0.009059906005859375
4552.9785,-0.010347366333007812
4554.931625,-0.009775161743164062
4556.88475,-0.011920928955078125
4558.837875,-0.013399124145507812
4560.791,-0.008344650268554688
4562.744125,-0.00476837158203125
4564.69725,-0.009584426879882812
4566.650375,-0.013065338134765625
4568.6035,-0.010395050048828125
4570.556625,-0.008726119995117188
4572.50975,-0.009822845458984375
4574.462875,-0.009918212890625
4576.416,-0.009393692016601562
4578.369125,-0.013828277587890625
4580.32225,-0.016164779663085938
4582.275375,-0.010204315185546875
4584.2285,-0.011348724365234375
4586.181625,-0.01373291015625
4588.13475,-0.0110626220703125
4590.087875,-0.013399124145507812
4592.041,-0.01277923583984375
4593.994125,-0.01201629638671875
4595.94725,-0.011157989501953125
4597.900375,-0.0080108642578125
4599.8535,-0.013113021850585938
4601.806625,-0.0148773193359375
4603.75975,-0.012445449829101562
4605.712875,-0.013017654418945312
4607.666,-0.011682510375976562
4609.619125,-0.01373291015625
4611.57225,-0.014734268188476562
4613.525375,-0.010967254638671875
4615.4785,-0.009059906005859375
4617.431625,-0.005340576171875
4619.38475,-0.0052928924560546875
4621.337875,-0.010156631469726562
4623.291,-0.01049041748046875
4625.244125,-0.009632110595703125
4627.19725,-0.010395050048828125
4629.150375,-0.013875961303710938
4631.1035,-0.014209747314453125
4633.056625,-0.010919570922851562
4635.00975,-0.011157989501953125
4636.962875,-0.009965896606445312
4638.916,-0.010538101196289062
4640.869125,-0.01163482666015625
4642.82225,-0.00438690185546875
4644.775375,0.0008106231689453125
4646.7285,-0.006103515625
4648.681625,-0.011301040649414062
4650.63475,-0.008344650268554688
4652.587875,-0.009298324584960938
4654.541,-0.010538101196289062
4656.494125,-0.0080108642578125
4658.44725,-0.009441375732421875
4660.400375,-0.012683868408203125
4662.3535,-0.00858306884765625
4664.306625,-0.00476837158203125
4666.25975,-0.009012222290039062
4668.212875,-0.01087188720703125
4670.166,-0.008869171142578125
4672.119125,-0.0054836273193359375
4674.07225,-0.0038623809814453125
4676.025375,-0.007867813110351562
4677.9785,-0.006198883056640625
4679.931625,0.001049041748046875
4681.88475,-0.0007152557373046875
4683.837875,-0.0072002410888671875
4685.791,-0.00820159912109375
4687.744125,-0.006103515625
4689.69725,-0.0049114227294921875
4691.650375,-0.0045299530029296875
4693.6035,-0.0035762786865234375
4695.556625,-0.0019073486328125
4697.50975,0.000286102294921875
4699.462875,0.0010967254638671875
4701.416,-0.0040531158447265625
4703.369125,-0.00934600830078125
4705.32225,-0.011682510375976562
4707.275375,-0.010395050048828125
4709.2285,-0.007534027099609375
4711.181625,-0.006866455078125
4713.13475,-0.0037670135498046875
4715.087875,-0.0045299530029296875
4717.041,-0.006008148193359375
4718.994125,-0.0017642974853515625
4720.94725,-0.00095367431640625
4722.900375,-0.0018596649169921875
4724.8535,-0.002002716064453125
4726.806625,-0.0026702880859375
4728.75975,-0.0043392181396484375
4730.712875,-0.010776519775390625
4732.666,-0.010776519775390625
4734.619125,-0.004673004150390625
4736.57225,-0.0049114227294921875
4738.525375,-0.0043392181396484375
4740.4785,-0.0020503997802734375
4742.431625,-0.0042438507080078125
4744.38475,-0.0034332275390625
4746.337875,-0.0019550323486328125
4748.291,-0.00476837158203125
4750.244125,-0.002002716064453125
4752.19725,-0.001049041748046875
4754.150375,-0.00667572021484375
4756.1035,-0.007724761962890625
4758.056625,-0.0032901763916015625
4760.00975,9.5367431640625e-05
4761.962875,-0.0026702880859375
4763.916,-0.0033855438232421875
4765.869125,0.001621246337890625
4767.82225,0.00324249267578125
4769.775375,0.00324249267578125
4771.7285,0.0043392181396484375
4773.681625,0.0049591064453125
4775.63475,0.0034332275390625
4777.587875,-4.76837158203125e-05
4779.541,-0.0011920928955078125
4781.494125,-0.005054473876953125
4783.44725,-0.0059604644775390625
4785.400375,0.005817413330078125
4787.3535,0.016450881958007812
4789.306625,0.0209808349609375
4791.25975,0.020599365234375
4793.212875,0.017404556274414062
4795.166,0.019359588623046875
4797.119125,0.019884109497070312
4799.07225,0.018644332885742188
4801.025375,0.019025802612304688
4802.9785,0.0179290771484375
4804.931625,0.017404556274414062
4806.88475,0.015735626220703125
4808.837875,0.017881393432617188
4810.791,0.022411346435546875
4812.744125,0.025653839111328125
4814.69725,0.029754638671875
4816.650375,0.02689361572265625
4818.6035,0.022459030151367188
4820.556625,0.023651123046875
4822.50975,0.022935867309570312
4824.462875,0.019025802612304688
4826.416,0.015687942504882812
4828.369125,0.012826919555664062
4830.32225,0.011014938354492188
4832.275375,0.0072002410888671875
4834.2285,0.0010967254638671875
4836.181625,9.5367431640625e-05
4838.13475,0.0004291534423828125
4840.087875,-0.0044345855712890625
4842.041,-0.0072479248046875
4843.994125,-0.0074863433837890625
4845.94725,-0.01068115234375
4847.900375,-0.012350082397460938
4849.8535,-0.012445449829101562
4851.806625,-0.014781951904296875
4853.75975,-0.016450881958007812
4855.712875,-0.016927719116210938
4857.666,-0.013828277587890625
4859.619125,-0.0071048736572265625
4861.57225,-0.01049041748046875
4863.525375,-0.017404556274414062
4865.4785,-0.015687942504882812
4867.431625,-0.013875961303710938
4869.38475,-0.012683868408203125
4871.337875,-0.0070095062255859375
4873.291,-4.76837158203125e-05
4875.244125,-0.0003814697265625
4877.19725,-0.0045299530029296875
4879.150375,-0.0052928924560546875
4881.1035,-0.0053882598876953125
4883.056625,-0.00476837158203125
4885.00975,-0.003528594970703125
4886.962875,-0.0041961669921875
4888.916,-0.004482269287109375
4890.869125,-0.0064373016357421875
4892.82225,-0.0080108642578125
4894.775375,-0.0037670135498046875
4896.7285,0.00133514404296875
4898.681625,0.0041961669921875
4900.63475,0.0030040740966796875
4902.587875,0.0025272369384765625
4904.541,0.004863739013671875
4906.494125,0.002193450927734375
4908.44725,0.003147125244140625
4910.400375,0.0046253204345703125
4912.3535,0.00095367431640625
4914.306625,0.0025272369384765625
4916.25975,0.005245208740234375
4918.212875,0.008678436279296875
4920.166,0.017070770263671875
4922.119125,0.027513504028320312
4924.07225,0.03681182861328125
4926.025375,0.03948211669921875
4927.9785,0.042629241943359375
4929.931625,0.05192756652832031
4931.88475,0.06251335144042969
4933.837875,0.06771087646484375
4935.791,0.06651878356933594
4937.744125,0.06823539733886719
4939.69725,0.07610321044921875
4941.650375,0.09884834289550781
4943.6035,0.1316070556640625
4945.556625,0.1445293426513672
4947.50975,0.15192031860351562
4949.462875,0.18110275268554688
4951.416,0.2060413360595703
4953.369125,0.2116680145263672
4955.32225,0.2045154571533203
4957.275375,0.18520355224609375
4959.2285,0.1678943634033203
4961.181625,0.14443397521972656
4963.13475,0.11258125305175781
4965.087875,0.0942230224609375
4967.041,0.0736236572265625
4968.994125,0.04372596740722656
4970.94725,0.028562545776367188
4972.900375,0.023746490478515625
4974.8535,0.014257431030273438
4976.806625,0.0110626220703125
4978.75975,0.015687942504882812
4980.712875,0.01163482666015625
4982.666,0.0033855438232421875
4984.619125,0.00171661376953125
4986.57225,0.0004291534423828125
4988.525375,-0.0030517578125
4990.4785,-0.009918212890625
4992.431625,-0.022983551025390625
4994.38475,-0.026607513427734375
4996.337875,-0.017499923706054688
4998.291,-0.010061264038085938
5000.244125,0.002765655517578125
5002.19725,0.021409988403320312
5004.150375,0.02918243408203125
5006.1035,0.03223419189453125
5008.056625,0.03724098205566406
5010.00975,0.033855438232421875
5011.962875,0.029993057250976562
5013.916,0.031948089599609375
5015.869125,0.0354766845703125
5017.82225,0.038909912109375
5019.775375,0.035953521728515625
5021.7285,0.03323554992675781
5023.681625,0.03662109375
5025.63475,0.03724098205566406
5027.587875,0.029897689819335938
5029.541,0.02613067626953125
5031.494125,0.031137466430664062
5033.44725,0.02956390380859375
5035.400375,0.02651214599609375
5037.3535,0.029754638671875
5039.306625,0.03209114074707031
5041.25975,0.03108978271484375
5043.212875,0.030517578125
5045.166,0.03266334533691406
5047.119125,0.033092498779296875
5049.07225,0.032901763916015625
5051.025375,0.031566619873046875
5052.9785,0.030088424682617188
5054.931625,0.033473968505859375
5056.88475,0.0354766845703125
5058.837875,0.03390312194824219
5060.791,0.030469894409179688
5062.744125,0.02765655517578125
5064.69725,0.027942657470703125
5066.650375,0.027608871459960938
5068.6035,0.029468536376953125
5070.556625,0.030231475830078125
5072.50975,0.028944015502929688
5074.462875,0.031042098999023438
5076.416,0.029230117797851562
5078.369125,0.025320053100585938
5080.32225,0.028371810913085938
5082.275375,0.033855438232421875
5084.2285,0.036525726318359375
5086.181625,0.034809112548828125
5088.13475,0.029230117797851562
5090.087875,0.024938583374023438
5092.041,0.02765655517578125
5093.994125,0.034236907958984375
5095.94725,0.03490447998046875
5097.900375,0.03142356872558594
5099.8535,0.031137466430664062
5101.806625,0.031757354736328125
5103.75975,0.031185150146484375
5105.712875,0.028705596923828125
5107.666,0.02803802490234375
5109.619125,0.03299713134765625
5111.57225,0.03914833068847656
5113.525375,0.04067420959472656
5115.4785,0.03566741943359375
5117.431625,0.027608871459960938
5119.38475,0.0244140625
5121.337875,0.031185150146484375
5123.291,0.035381317138671875
5125.244125,0.035190582275390625
5127.19725,0.04153251647949219
5129.150375,0.04029273986816406
5131.1035,0.035858154296875
5133.056625,0.04229545593261719
5135.00975,0.04534721374511719
5136.962875,0.04496574401855469
5138.916,0.04558563232421875
5140.869125,0.04372596740722656
5142.82225,0.0484466552734375
5144.775375,0.05164146423339844
5146.7285,0.041866302490234375
5148.681625,0.040149688720703125
5150.63475,0.04792213439941406
5152.587875,0.0476837158203125
5154.541,0.04982948303222656
5156.494125,0.05550384521484375
5158.44725,0.0579833984375
5160.400375,0.06289482116699219
5162.3535,0.06451606750488281
5164.306625,0.06084442138671875
5166.25975,0.06136894226074219
5168.212875,0.06875991821289062
5170.166,0.07534027099609375
5172.119125,0.07448196411132812
5174.07225,0.0720977783203125
5176.025375,0.07243156433105469
5177.9785,0.07443428039550781
5179.931625,0.07233619689941406
5181.88475,0.07042884826660156
5183.837875,0.07715225219726562
5185.791,0.07767677307128906
5187.744125,0.07777214050292969
5189.69725,0.08869171142578125
5191.650375,0.08745193481445312
5193.6035,0.07967948913574219
5195.556625,0.08563995361328125
5197.50975,0.08854866027832031
5199.462875,0.08630752563476562
5201.416,0.08869171142578125
5203.369125,0.08711814880371094
5205.32225,0.0843048095703125
5207.275375,0.08606910705566406
5209.2285,0.08635520935058594
5211.181625,0.08420944213867188
5213.13475,0.08296966552734375
5215.087875,0.08535385131835938
5217.041,0.09336471557617188
5218.994125,0.0942230224609375
5220.94725,0.08754730224609375
5222.900375,0.08683204650878906
5224.8535,0.08144378662109375
5226.806625,0.07033348083496094
5228.75975,0.069427490234375
5230.712875,0.06899833679199219
5232.666,0.06518363952636719
5234.619125,0.06465911865234375
5236.57225,0.06184577941894531
5238.525375,0.06270408630371094
5240.4785,0.06551742553710938
5242.431625,0.0583648681640625
5244.38475,0.05154609680175781
5246.337875,0.051116943359375
5248.291,0.044918060302734375
5250.244125,0.03914833068847656
5252.19725,0.04334449768066406
5254.150375,0.04124641418457031
5256.1035,0.03170967102050781
5258.056625,0.029611587524414062
5260.00975,0.025272369384765625
5261.962875,0.01697540283203125
5263.916,0.015211105346679688
5265.869125,0.014209747314453125
5267.82225,0.013828277587890625
5269.775375,0.013875961303710938
5271.7285,0.010538101196289062
5273.681625,0.00972747802734375
5275.63475,0.005817413330078125
5277.587875,0.00095367431640625
5279.541,0.0073909759521484375
5281.4943,0.01068115234375
5283.447424,0.0031948089599609375
5285.400548,-0.002288818359375
5287.353672,-0.0028133392333984375
5289.306796,-0.0041961669921875
5291.25992,-0.009250640869140625
5293.213044,-0.008153915405273438
5295.166168,-0.0030994415283203125
5297.119292,-0.009012222290039062
5299.072416,-0.015544891357421875
5301.02554,-0.01354217529296875
5302.978664,-0.0125885009765625
5304.931788,-0.012683868408203125
5306.884912,-0.0077724456787109375
5308.838036,-0.004291534423828125
5310.79116,-0.0065326690673828125
5312.744284,-0.008726119995117188
5314.697408,-0.011444091796875
5316.650532,-0.0141143798828125
5318.603656,-0.014638900756835938
5320.55678,-0.015163421630859375
5322.509904,-0.014638900756835938
5324.463028,-0.013637542724609375
5326.416152,-0.012302398681640625
5328.369276,-0.011491775512695312
5330.3224,-0.013208389282226562
5332.275524,-0.012731552124023438
5334.228648,-0.010395050048828125
5336.181772,-0.01220703125
5338.134896,-0.013303756713867188
5340.08802,-0.01010894775390625
5342.041144,-0.009250640869140625
5343.994268,-0.009965896606445312
5345.947392,-0.00896453857421875
5347.900516,-0.0064849853515625
5349.85364,-0.00324249267578125
5351.806764,-0.00629425048828125
5353.759888,-0.00934600830078125
5355.713012,-0.0075817108154296875
5357.666136,-0.009202957153320312
5359.61926,-0.0064849853515625
5361.572384,-0.0001430511474609375
5363.525508,-0.0013828277587890625
5365.478632,-0.0072956085205078125
5367.431756,-0.01010894775390625
5369.38488,-0.0072956085205078125
5371.338004,-0.0073909759521484375
5373.291128,-0.008440017700195312
5375.244252,-0.0058650970458984375
5377.197376,-0.008440017700195312
5379.1505,-0.00782012939453125
5381.103624,-0.0030994415283203125
5383.056748,-0.0053882598876953125
5385.009872,-0.008344650268554688
5386.962996,-0.00782012939453125
5388.91612,-0.0071048736572265625
5390.869244,-0.007963180541992188
5392.822368,-0.010013580322265625
5394.775492,-0.0072479248046875
5396.728616,-0.000667572021484375
5398.68174,-0.000858306884765625
5400.634864,-0.0048160552978515625
5402.587988,-0.0022411346435546875
5404.541112,0.000762939453125
5406.494236,-0.0028133392333984375
5408.44736,-0.003910064697265625
5410.400484,-0.00133514404296875
5412.353608,-0.0025272369384765625
5414.306732,-0.003147125244140625
5416.259856,-0.0014781951904296875
5418.21298,-0.0024318695068359375
5420.166104,-0.00743865966796875
5422.119228,-0.006866455078125
5424.072352,-0.0025272369384765625
5426.025476,-0.0064373016357421875
5427.9786,-0.0072479248046875
5429.931724,-0.00209808349609375
5431.884848,-0.0034809112548828125
5433.837972,-0.006389617919921875
5435.791096,-0.00476837158203125
5437.74422,-0.004863739013671875
5439.697344,-0.008535385131835938
5441.650468,-0.010061264038085938
5443.603592,-0.00934600830078125
5445.556716,-0.007963180541992188
5447.50984,-0.008296966552734375
5449.462964,-0.010776519775390625
5451.416088,-0.009822845458984375
5453.369212,-0.006771087646484375
5455.322336,-0.005626678466796875
5457.27546,-0.00820159912109375
5459.228584,-0.008487701416015625
5461.181708,-0.0019550323486328125
5463.134832,-0.0049591064453125
5465.087956,-0.014925003051757812
5467.04108,-0.011968612670898438
5468.994204,-0.0038623809814453125
5470.947328,-0.0044345855712890625
5472.900452,-0.0041961669921875
5474.853576,0.001239776611328125
5476.8067,-0.002288818359375
5478.759824,-0.009012222290039062
5480.712948,-0.009632110595703125
5482.666072,-0.01201629638671875
5484.619196,-0.011444091796875
5486.57232,-0.0049114227294921875
5488.525444,-0.0064373016357421875
5490.478568,-0.014781951904296875
5492.431692,-0.014400482177734375
5494.384816,-0.012540817260742188
5496.33794,-0.01430511474609375
5498.291064,-0.011920928955078125
5500.244188,-0.010013580322265625
5502.197312,-0.010824203491210938
5504.150436,-0.010442733764648438
5506.10356,-0.010013580322265625
5508.056684,-0.0091552734375
5510.009808,-0.008869171142578125
5511.962932,-0.010538101196289062
5513.916056,-0.012302398681640625
5515.86918,-0.014638900756835938
5517.822304,-0.015163421630859375
5519.775428,-0.011491775512695312
5521.728552,-0.010633468627929688
5523.681676,-0.011014938354492188
5525.6348,-0.013589859008789062
5527.587924,-0.019979476928710938
5529.541048,-0.01735687255859375
5531.494172,-0.014400482177734375
5533.447296,-0.015354156494140625
5535.40042,-0.0087738037109375
5537.353544,-0.0045299530029296875
5539.306668,-0.0042438507080078125
5541.259792,-0.0023365020751953125
5543.212916,-0.0049591064453125
5545.16604,-0.01163482666015625
5547.119164,-0.015401840209960938
5549.072288,-0.011777877807617188
5551.025412,-0.010967254638671875
5552.978536,-0.015020370483398438
5554.93166,-0.013399124145507812
5556.884784,-0.013113021850585938
5558.837908,-0.01468658447265625
5560.791032,-0.013399124145507812
5562.744156,-0.015306472778320312
5564.69728,-0.012493133544921875
5566.650404,-0.008440017700195312
5568.603528,-0.013875961303710938
5570.556652,-0.011396408081054688
5572.509776,-0.00457763671875
5574.4629,-0.00629425048828125
5576.416024,-0.0066280364990234375
5578.369148,-0.010728836059570312
5580.322272,-0.0152587890625
5582.275396,-0.011491775512695312
5584.22852,-0.00858306884765625
5586.181644,-0.0063419342041015625
5588.134768,-0.0075817108154296875
5590.087892,-0.011920928955078125
5592.041016,-0.014734268188476562
5593.99414,-0.013875961303710938
5595.947264,-0.0068187713623046875
5597.900388,-0.0051021575927734375
5599.853512,-0.0071048736572265625
5601.806636,-0.0068187713623046875
5603.75976,-0.008821487426757812
5605.712884,-0.009298324584960938
5607.666008,-0.0118255615234375
5609.619132,-0.011348724365234375
5611.572256,-0.002765655517578125
5613.52538,-0.001621246337890625
5615.478504,-0.0037670135498046875
5617.431628,-0.00324249267578125
5619.384752,-0.00782012939453125
5621.337876,-0.0118255615234375
5623.291,-0.008821487426757812
5625.244124,-0.002193450927734375
5627.197248,0.0037670135498046875
5629.150372,0.00896453857421875
5631.103496,0.01087188720703125
5633.05662,0.010728836059570312
5635.009744,0.013685226440429688
5636.962868,0.017309188842773438
5638.915992,0.020265579223632812
5640.869116,0.01964569091796875
5642.82224,0.0194549560546875
5644.775364,0.01926422119140625
5646.728488,0.013589859008789062
5648.681612,0.0118255615234375
5650.634736,0.013828277587890625
5652.58786,0.01068115234375
5654.540984,0.0007152557373046875
5656.494108,0.0018596649169921875
5658.447232,0.018310546875
5660.400356,0.021791458129882812
5662.35348,0.014495849609375
5664.306604,0.015544891357421875
5666.259728,0.016355514526367188
5668.212852,0.009775161743164062
5670.165976,0.005626678466796875
5672.1191,0.0048160552978515625
5674.072224,0.0019550323486328125
5676.025348,-0.0015735626220703125
5677.978472,-0.0071048736572265625
5679.931596,-0.010633468627929688
5681.88472,-0.00896453857421875
5683.837844,-0.010967254638671875
5685.790968,-0.013113021850585938
5687.744092,-0.01277923583984375
5689.697216,-0.013208389282226562
5691.65034,-0.01049041748046875
5693.603464,-0.010204315185546875
5695.556588,-0.0118255615234375
5697.509712,-0.010347366333007812
5699.462836,-0.01049041748046875
5701.41596,-0.012922286987304688
5703.369084,-0.016498565673828125
5705.322208,-0.019693374633789062
5707.275332,-0.022172927856445312
5709.228456,-0.02651214599609375
5711.18158,-0.029802322387695312
5713.134704,-0.020599365234375
5715.087828,-0.008535385131835938
5717.040952,-0.00782012939453125
5718.994076,-0.00743865966796875
5720.9472,-0.0061511993408203125
5722.900324,-0.0048160552978515625
5724.853448,-0.003814697265625
5726.806572,-0.0073909759521484375
5728.759696,-0.008344650268554688
5730.71282,-0.008106231689453125
5732.665944,-0.01277923583984375
5734.619068,-0.011205673217773438
5736.572192,-0.007534027099609375
5738.525316,-0.011205673217773438
5740.47844,-0.010204315185546875
5742.431564,-0.0080108642578125
5744.384688,-0.011777877807617188
5746.337812,-0.01087188720703125
5748.290936,-0.0072956085205078125
5750.24406,-0.0072956085205078125
5752.197184,-0.00762939453125
5754.150308,-0.0074863433837890625
5756.103432,-0.0060558319091796875
5758.056556,-0.0016689300537109375
5760.00968,-0.00095367431640625
5761.962804,-0.0036716461181640625
5763.915928,-0.00133514404296875
5765.869052,0.006580352783203125
5767.822176,0.01735687255859375
5769.7753,0.0324249267578125
5771.728424,0.04444122314453125
5773.681548,0.045490264892578125
5775.634672,0.04820823669433594
5777.587796,0.05359649658203125
5779.54092,0.05435943603515625
5781.494044,0.059032440185546875
5783.447168,0.06265640258789062
5785.400292,0.064849853515625
5787.353416,0.08091926574707031
5789.30654,0.11029243469238281
5791.259664,0.12941360473632812
5793.212788,0.13866424560546875
5795.165912,0.16350746154785156
5797.119036,0.18935203552246094
5799.07216,0.1983642578125
5801.025284,0.1922130584716797
5802.978408,0.17709732055664062
5804.931532,0.16298294067382812
5806.884656,0.13742446899414062
5808.83778,0.1049041748046875
5810.790904,0.08325576782226562
5812.744028,0.06117820739746094
5814.697152,0.03790855407714844
5816.650276,0.026273727416992188
5818.6034,0.0194549560546875
5820.556524,0.013589859008789062
5822.509648,0.011444091796875
5824.462772,0.010585784912109375
5826.415896,0.00896453857421875
5828.36902,0.0008106231689453125
5830.322144,-0.007534027099609375
5832.275268,-0.010585784912109375
5834.228392,-0.016164779663085938
5836.181516,-0.023221969604492188
5838.13464,-0.02613067626953125
5840.087764,-0.021028518676757812
5842.040888,-0.00972747802734375
5843.994012,-0.002384185791015625
5845.947136,0.0051021575927734375
5847.90026,0.022220611572265625
5849.853384,0.040721893310546875
5851.806508,0.04773139953613281
5853.759632,0.04138946533203125
5855.712756,0.033855438232421875
5857.66588,0.029230117797851562
5859.619004,0.0263214111328125
5861.572128,0.0308990478515625
5863.525252,0.032329559326171875
5865.478376,0.026416778564453125
5867.4315,0.027942657470703125
5869.384624,0.030183792114257812
5871.337748,0.02422332763671875
5873.290872,0.024366378784179688
5875.243996,0.028085708618164062
5877.19712,0.026988983154296875
5879.150244,0.028085708618164062
5881.103368,0.028085708618164062
5883.056492,0.0274658203125
5885.009616,0.029611587524414062
5886.96274,0.025844573974609375
5888.915864,0.018215179443359375
5890.868988,0.0202178955078125
5892.822112,0.027561187744140625
5894.775236,0.024509429931640625
5896.72836,0.018978118896484375
5898.681484,0.0263214111328125
5900.634608,0.03495216369628906
5902.587732,0.03204345703125
5904.540856,0.027799606323242188
5906.49398,0.027322769165039062
5908.447104,0.027227401733398438
5910.400228,0.030279159545898438
5912.353352,0.030231475830078125
5914.306476,0.02593994140625
5916.2596,0.023746490478515625
5918.212724,0.02384185791015625
5920.165848,0.025129318237304688
5922.118972,0.019979476928710938
5924.072096,0.017976760864257812
5926.02522,0.024652481079101562
5927.978344,0.0270843505859375
5929.931468,0.02765655517578125
5931.884592,0.030231475830078125
5933.837716,0.031757354736328125
5935.79084,0.026655197143554688
5937.743964,0.020074844360351562
5939.697088,0.021600723266601562
5941.650212,0.02269744873046875
5943.603336,0.021648406982421875
5945.55646,0.0263214111328125
5947.509584,0.03409385681152344
5949.462708,0.036907196044921875
5951.415832,0.034236907958984375
5953.368956,0.029230117797851562
5955.32208,0.028133392333984375
5957.275204,0.030565261840820312
5959.228328,0.029516220092773438
5961.181452,0.029611587524414062
5963.134576,0.03228187561035156
5965.0877,0.031757354736328125
5967.040824,0.028276443481445312
5968.993948,0.029087066650390625
5970.947072,0.03910064697265625
5972.900196,0.045108795166015625
5974.85332,0.03676414489746094
5976.806444,0.029850006103515625
5978.759568,0.03132820129394531
5980.712692,0.03180503845214844
5982.665816,0.03390312194824219
5984.61894,0.0400543212890625
5986.572064,0.044536590576171875
5988.525188,0.046253204345703125
5990.478312,0.05078315734863281
5992.431436,0.05059242248535156
5994.38456,0.04200935363769531
5996.337684,0.04119873046875
5998.290808,0.04367828369140625
6000.243932,0.04467964172363281
6002.197056,0.05440711975097656
6004.15018,0.06089210510253906
6006.103304,0.05545616149902344
6008.056428,0.05440711975097656
6010.009552,0.05936622619628906
6011.962676,0.061511993408203125
6013.9158,0.06546974182128906
6015.868924,0.0682830810546875
6017.822048,0.06656646728515625
6019.775172,0.06856918334960938
6021.728296,0.070953369140625
6023.68142,0.07047653198242188
6025.634544,0.07200241088867188
6027.587668,0.07443428039550781
6029.540792,0.07281303405761719
6031.493916,0.07200241088867188
6033.44704,0.07586479187011719
6035.400164,0.07719993591308594
6037.353288,0.07557868957519531
6039.306412,0.0743865966796875
6041.259536,0.07381439208984375
6043.21266,0.07801055908203125
6045.165784,0.08487701416015625
6047.118908,0.0881195068359375
6049.072032,0.08625984191894531
6051.025156,0.08053779602050781
6052.97828,0.07872581481933594
6054.931404,0.08149147033691406
6056.884528,0.07596015930175781
6058.837652,0.07066726684570312
6060.790776,0.07719993591308594
6062.7439,0.08296966552734375
6064.697024,0.08502006530761719
6066.650148,0.08435249328613281
6068.603272,0.07715225219726562
6070.556396,0.07271766662597656
6072.50952,0.07295608520507812
6074.462644,0.06718635559082031
6076.415768,0.06103515625
6078.368892,0.06165504455566406
6080.322016,0.05965232849121094
6082.27514,0.05602836608886719
6084.228264,0.05955696105957031
6086.181388,0.05726814270019531
6088.134512,0.04591941833496094
6090.087636,0.044918060302734375
6092.04076,0.05145072937011719
6093.993884,0.04811286926269531
6095.947008,0.032520294189453125
6097.900132,0.025606155395507812
6099.853256,0.028896331787109375
6101.80638,0.023794174194335938
6103.759504,0.02040863037109375
6105.712628,0.019311904907226562
6107.665752,0.0148773193359375
6109.618876,0.014209747314453125
6111.572,0.01373291015625
6113.525124,0.012922286987304688
6115.478248,0.011444091796875
6117.431372,0.0040531158447265625
6119.384496,-0.0014781951904296875
6121.33762,-0.000762939453125
6123.290744,-0.00171661376953125
6125.243868,-0.006008148193359375
6127.196992,-0.0062465667724609375
6129.150116,-0.0014781951904296875
6131.10324,-0.0041484832763671875
6133.056364,-0.0091552734375
6135.009488,-0.004482269287109375
6136.962612,-0.0011444091796875
6138.915736,-0.0006198883056640625
6140.86886,-0.0033855438232421875
6142.821984,-0.011110305786132812
6144.775108,-0.012636184692382812
6146.728232,-0.010156631469726562
6148.681356,-0.009918212890625
6150.63448,-0.011301040649414062
6152.587604,-0.010824203491210938
6154.540728,-0.00629425048828125
6156.493852,-0.006961822509765625
6158.446976,-0.012111663818359375
6160.4001,-0.013637542724609375
6162.353224,-0.013065338134765625
6164.306348,-0.014781951904296875
6166.259472,-0.015926361083984375
6168.212596,-0.015020370483398438
6170.16572,-0.016450881958007812
6172.118844,-0.012540817260742188
6174.071968,-0.0027179718017578125
6176.025092,-0.003814697265625
6177.978216,-0.0141143798828125
6179.93134,-0.01544952392578125
6181.884464,-0.0060558319091796875
6183.837588,-0.0026226043701171875
6185.790712,-0.006580352783203125
6187.743836,-0.010538101196289062
6189.69696,-0.01659393310546875
6191.650084,-0.01239776611328125
6193.603208,-0.003910064697265625
6195.556332,-0.009250640869140625
6197.509456,-0.012445449829101562
6199.46258,-0.007963180541992188
6201.415704,-0.0059604644775390625
6203.368828,-0.006961822509765625
6205.321952,-0.0118255615234375
6207.275076,-0.015592575073242188
6209.2282,-0.012302398681640625
6211.181324,-0.008344650268554688
6213.134448,-0.005817413330078125
6215.087572,-0.004100799560546875
6217.040696,-0.0034809112548828125
6218.99382,-0.0017642974853515625
6220.946944,-0.0060558319091796875
6222.900068,-0.013971328735351562
6224.853192,-0.009918212890625
6226.806316,-0.0041961669921875
6228.75944,-0.00591278076171875
6230.712564,-0.0049114227294921875
6232.665688,-0.00629425048828125
6234.618812,-0.00820159912109375
6236.571936,-0.0011920928955078125
6238.52506,0.001621246337890625
6240.478184,-0.004100799560546875
6242.431308,-0.0049114227294921875
6244.384432,-0.0027179718017578125
6246.337556,-0.0064373016357421875
6248.29068,-0.009870529174804688
6250.243804,-0.00591278076171875
6252.196928,-4.76837158203125e-05
6254.150052,0.00247955322265625
6256.103176,0.0023365020751953125
6258.0563,-0.003147125244140625
6260.009424,-0.0051021575927734375
6261.962548,0.0001430511474609375
6263.915672,0.0030040740966796875
6265.868796,0.003528594970703125
6267.82192,0.000286102294921875
6269.775044,-0.001430511474609375
6271.728168,-0.0001430511474609375
6273.681292,-0.00286102294921875
6275.634416,-0.00152587890625
6277.58754,0.001239776611328125
6279.540664,-0.0018596649169921875
6281.493788,-0.00209808349609375
6283.446912,0.0001430511474609375
6285.400036,-0.0018596649169921875
6287.35316,0.0011920928955078125
6289.306284,0.0072002410888671875
6291.259408,0.0044345855712890625
6293.212532,0.000667572021484375
6295.165656,0.0012874603271484375
6297.11878,-0.0004291534423828125
6299.071904,-0.001430511474609375
6301.025028,0.0033855438232421875
6302.978152,0.0062465667724609375
6304.931276,0.002956390380859375
6306.8844,-0.0047206878662109375
6308.837524,-0.0072002410888671875
6310.790648,0.0003337860107421875
6312.743772,-0.000476837158203125
6314.696896,-0.006961822509765625
6316.65002,-0.0066280364990234375
6318.603144,-0.0024318695068359375
6320.556268,-0.00095367431640625
6322.509392,-0.0072002410888671875
6324.462516,-0.0049591064453125
6326.41564,0.004291534423828125
6328.368764,-0.0014781951904296875
6330.321888,-0.009202957153320312
6332.275012,-0.00934600830078125
6334.228136,-0.009870529174804688
6336.18126,-0.0038623809814453125
6338.134384,0.00133514404296875
6340.087508,-0.0029087066650390625
6342.040632,-0.00438690185546875
6343.993756,-0.001049041748046875
6345.94688,-0.0032901763916015625
6347.900004,-0.00762939453125
6349.853128,-0.0042438507080078125
6351.806252,-0.0019550323486328125
6353.759376,-0.0008106231689453125
6355.7125,0.0003814697265625
6357.665624,-0.007152557373046875
6359.618748,-0.011014938354492188
6361.571872,-0.0062465667724609375
6363.524996,-0.00553131103515625
6365.47812,-0.006866455078125
6367.431244,-0.006866455078125
6369.384368,-0.011873245239257812
6371.337492,-0.016498565673828125
6373.290616,-0.01125335693359375
6375.24374,-0.006866455078125
6377.196864,-0.008344650268554688
6379.149988,-0.0073909759521484375
6381.103112,-0.009059906005859375
6383.056236,-0.00782012939453125
6385.00936,0.0007152557373046875
6386.962484,-0.000286102294921875
6388.915608,-0.0060558319091796875
6390.868732,-0.0043392181396484375
6392.821856,-0.003814697265625
6394.77498,-0.009012222290039062
6396.728104,-0.010156631469726562
6398.681228,-0.0061511993408203125
6400.634352,-0.010728836059570312
6402.587476,-0.01049041748046875
6404.5406,-0.0019073486328125
6406.493724,-0.0018596649169921875
6408.446848,-0.000476837158203125
6410.399972,-0.0008106231689453125
6412.353096,-0.0077724456787109375
6414.30622,-0.009870529174804688
6416.259344,-0.0074863433837890625
6418.212468,-0.0056743621826171875
6420.165592,-0.0050067901611328125
6422.118716,-0.002193450927734375
6424.07184,-0.0003337860107421875
6426.024964,-0.0019073486328125
6427.978088,-0.0004291534423828125
6429.931212,0.003528594970703125
6431.884336,0.002574920654296875
6433.83746,-0.0072479248046875
6435.790584,-0.0156402587890625
6437.743708,-0.0148773193359375
6439.696832,-0.01277923583984375
6441.649956,-0.008630752563476562
6443.60308,-0.0058650970458984375
6445.556204,-0.0071048736572265625
6447.509328,-0.0027179718017578125
6449.462452,0.002193450927734375
6451.415576,4.76837158203125e-05
6453.3687,-0.001049041748046875
6455.321824,0.0039577484130859375
6457.274948,0.006008148193359375
6459.228072,0.0034809112548828125
6461.181196,-0.000286102294921875
6463.13432,-0.004482269287109375
6465.087444,0.0025272369384765625
6467.040568,0.0062465667724609375
6468.993692,-0.0029087066650390625
6470.946816,0.0040531158447265625
6472.89994,0.0171661376953125
6474.853064,0.023365020751953125
6476.806188,0.02689361572265625
6478.759312,0.018596649169921875
6480.712436,0.018930435180664062
6482.66556,0.026655197143554688
6484.618684,0.02307891845703125
6486.571808,0.02155303955078125
6488.524932,0.02231597900390625
6490.478056,0.0244140625
6492.43118,0.030088424682617188
6494.384304,0.024747848510742188
6496.337428,0.01621246337890625
6498.290552,0.019598007202148438
6500.243676,0.026655197143554688
6502.1968,0.025081634521484375
6504.149924,0.015926361083984375
6506.103048,0.015020370483398438
6508.056172,0.014209747314453125
6510.009296,0.007963180541992188
6511.96242,0.011491775512695312
6513.915544,0.012826919555664062
6515.868668,0.007152557373046875
6517.821792,0.00553131103515625
6519.774916,0.0018596649169921875
6521.72804,-0.00362396240234375
6523.681164,-0.0076770782470703125
6525.634288,-0.006771087646484375
6527.587412,-0.00209808349609375
6529.540536,-0.00476837158203125
6531.49366,-0.01010894775390625
6533.446784,-0.011396408081054688
6535.399908,-0.009298324584960938
6537.353032,-0.005626678466796875
6539.306156,-0.0053882598876953125
6541.25928,-0.0066280364990234375
6543.212404,-0.0030040740966796875
6545.165528,-0.0006198883056640625
6547.118652,-0.0026226043701171875
6549.071776,-0.004100799560546875
6551.0249,-0.0073909759521484375
6552.978024,-0.0080108642578125
6554.931148,-0.009679794311523438
6556.884272,-0.012683868408203125
6558.837396,-0.00896453857421875
6560.79052,-0.0064849853515625
6562.743644,-0.0069141387939453125
6564.696768,-0.008487701416015625
6566.649892,-0.0072002410888671875
6568.603016,-0.0048160552978515625
6570.55614,-0.0049591064453125
6572.509264,-0.0038623809814453125
6574.462388,-0.008106231689453125
6576.415512,-0.011682510375976562
6578.368636,-0.0080108642578125
6580.32176,-0.007534027099609375
6582.274884,-0.0070095062255859375
6584.228008,-0.0036716461181640625
6586.181132,-0.009775161743164062
6588.134256,-0.015115737915039062
6590.08738,-0.00705718994140625
6592.040504,-0.005435943603515625
6593.993628,-0.0118255615234375
6595.946752,-0.009393692016601562
6597.899876,-0.0042438507080078125
6599.853,-0.0007152557373046875
6601.806625,0.004482269287109375
6603.75975,0.0059604644775390625
6605.712875,0.003528594970703125
6607.666,0.011301040649414062
6609.619125,0.028753280639648438
6611.57225,0.0385284423828125
6613.525375,0.03819465637207031
6615.4785,0.0396728515625
6617.431625,0.04444122314453125
6619.38475,0.04858970642089844
6621.337875,0.05664825439453125
6623.291,0.06475448608398438
6625.244125,0.06628036499023438
6627.19725,0.06856918334960938
6629.150375,0.07739067077636719
6631.1035,0.10099411010742188
6633.056625,0.1262187957763672
6635.00975,0.13260841369628906
6636.962875,0.14433860778808594
6638.916,0.17137527465820312
6640.869125,0.1857757568359375
6642.82225,0.18291473388671875
6644.775375,0.17838478088378906
6646.7285,0.17185211181640625
6648.681625,0.14925003051757812
6650.63475,0.11849403381347656
6652.587875,0.09598731994628906
6654.541,0.06594657897949219
6656.494125,0.02918243408203125
6658.44725,0.014400482177734375
6660.400375,0.01125335693359375
6662.3535,0.001049041748046875
6664.306625,0.0019073486328125
6666.25975,0.017547607421875
6668.212875,0.020599365234375
6670.166,0.005340576171875
6672.119125,-0.0043392181396484375
6674.07225,-0.003337860107421875
6676.025375,-0.0072479248046875
6677.9785,-0.01697540283203125
6679.931625,-0.020647048950195312
6681.88475,-0.017976760864257812
6683.837875,-0.013828277587890625
6685.791,-0.006866455078125
6687.744125,0.0034332275390625
6689.69725,0.019311904907226562
6691.650375,0.03552436828613281
6693.6035,0.04267692565917969
6695.556625,0.04572868347167969
6697.50975,0.04353523254394531
6699.462875,0.03838539123535156
6701.416,0.03991127014160156
6703.369125,0.043773651123046875
6705.32225,0.04405975341796875
6707.275375,0.04115104675292969
6709.2285,0.03752708435058594
6711.181625,0.03294944763183594
6713.13475,0.0301361083984375
6715.087875,0.03223419189453125
6717.041,0.03409385681152344
6718.994125,0.03204345703125
6720.94725,0.029516220092773438
6722.900375,0.02727508544921875
6724.8535,0.027036666870117188
6726.806625,0.03151893615722656
6728.75975,0.0331878662109375
6730.712875,0.030469894409179688
6732.666,0.030469894409179688
6734.619125,0.030946731567382812
6736.57225,0.031566619873046875
6738.525375,0.031566619873046875
6740.4785,0.02899169921875
6742.431625,0.029325485229492188
6744.38475,0.031375885009765625
6746.337875,0.029659271240234375
6748.291,0.026845932006835938
6750.244125,0.026559829711914062
6752.19725,0.028753280639648438
6754.150375,0.032806396484375
6756.1035,0.03466606140136719
6758.056625,0.03552436828613281
6760.00975,0.03795623779296875
6761.962875,0.0354766845703125
6763.916,0.031137466430664062
6765.869125,0.031948089599609375
6767.82225,0.03361701965332031
6769.775375,0.032520294189453125
6771.7285,0.028467178344726562
6773.681625,0.0278472900390625
6775.63475,0.034332275390625
6777.587875,0.036334991455078125
6779.541,0.032806396484375
6781.494125,0.03399848937988281
6783.44725,0.03490447998046875
6785.400375,0.033473968505859375
6787.3535,0.033855438232421875
6789.306625,0.0331878662109375
6791.25975,0.03414154052734375
6793.212875,0.03871917724609375
6795.166,0.042438507080078125
6797.119125,0.039005279541015625
6799.07225,0.0347137451171875
6801.025375,0.03886222839355469
6802.9785,0.04229545593261719
6804.931625,0.042629241943359375
6806.88475,0.040912628173828125
6808.837875,0.03552436828613281
6810.791,0.037097930908203125
6812.744125,0.03924369812011719
6814.69725,0.035572052001953125
6816.650375,0.03533363342285156
6818.6035,0.037097930908203125
6820.556625,0.04181861877441406
6822.50975,0.05164146423339844
6824.462875,0.05679130554199219
6826.416,0.05321502685546875
6828.369125,0.04963874816894531
6830.32225,0.050067901611328125
6832.275375,0.047779083251953125
6834.2285,0.04410743713378906
6836.181625,0.05021095275878906
6838.13475,0.05645751953125
6840.087875,0.05664825439453125
6842.041,0.06237030029296875
6843.994125,0.0659942626953125
6845.94725,0.06318092346191406
6847.900375,0.0629425048828125
6849.8535,0.06723403930664062
6851.806625,0.07481575012207031
6853.75975,0.07505416870117188
6855.712875,0.06823539733886719
6857.666,0.07076263427734375
6859.619125,0.07891654968261719
6861.57225,0.08106231689453125
6863.525375,0.08397102355957031
6865.4785,0.08940696716308594
6867.431625,0.08702278137207031
6869.38475,0.08187294006347656
6871.337875,0.08230209350585938
6873.291,0.08082389831542969
6875.244125,0.08153915405273438
6877.19725,0.0888824462890625
6879.150375,0.08897781372070312
6881.1035,0.08778572082519531
6883.056625,0.09131431579589844
6885.00975,0.09245872497558594
6886.962875,0.09388923645019531
6888.916,0.09407997131347656
6890.869125,0.09579658508300781
6892.82225,0.09531974792480469
6894.775375,0.08969306945800781
6896.7285,0.09279251098632812
6898.681625,0.09465217590332031
6900.63475,0.08869171142578125
6902.587875,0.08974075317382812
6904.541,0.09150505065917969
6906.494125,0.08678436279296875
6908.44725,0.08692741394042969
6910.400375,0.08802413940429688
6912.3535,0.07929801940917969
6914.306625,0.07319450378417969
6916.25975,0.0736236572265625
6918.212875,0.0720977783203125
6920.166,0.06895065307617188
6922.119125,0.06775856018066406
6924.07225,0.07042884826660156
6926.025375,0.0675201416015625
6927.9785,0.0606536865234375
6929.931625,0.05984306335449219
6931.88475,0.05550384521484375
6933.837875,0.0469207763671875
6935.791,0.04482269287109375
6937.744125,0.043010711669921875
6939.69725,0.03437995910644531
6941.650375,0.028657913208007812
6943.6035,0.030994415283203125
6945.556625,0.032138824462890625
6947.50975,0.029850006103515625
6949.462875,0.02574920654296875
6951.416,0.018787384033203125
6953.369125,0.016021728515625
6955.32225,0.012826919555664062
6957.275375,0.008678436279296875
6959.2285,0.011873245239257812
6961.181625,0.0110626220703125
6963.13475,0.00705718994140625
6965.087875,0.0054836273193359375
6967.041,-0.00247955322265625
6968.994125,-0.0102996826171875
6970.94725,-0.003719329833984375
6972.900375,0.009250640869140625
6974.8535,0.007867813110351562
6976.806625,-0.003814697265625
6978.75975,-0.0064373016357421875
6980.712875,-0.0026702880859375
6982.666,-0.007963180541992188
6984.619125,-0.017595291137695312
6986.57225,-0.015878677368164062
6988.525375,-0.009775161743164062
6990.4785,-0.0077724456787109375
6992.431625,-0.0063419342041015625
6994.38475,-0.0064849853515625
6996.337875,-0.006103515625
6998.291,-0.006580352783203125
7000.244125,-0.01277923583984375
7002.19725,-0.014972686767578125
7004.150375,-0.01354217529296875
7006.1035,-0.0164031982421875
7008.056625,-0.018644332885742188
7010.00975,-0.01468658447265625
7011.962875,-0.007867813110351562
7013.916,-0.007915496826171875
7015.869125,-0.009107589721679688
7017.82225,-0.007963180541992188
7019.775375,-0.011396408081054688
7021.7285,-0.012493133544921875
7023.681625,-0.0095367431640625
7025.63475,-0.010347366333007812
7027.587875,-0.011920928955078125
7029.541,-0.008249282836914062
7031.494125,-0.006580352783203125
7033.44725,-0.008487701416015625
7035.400375,-0.008153915405273438
7037.3535,-0.015211105346679688
7039.306625,-0.019216537475585938
7041.25975,-0.012826919555664062
7043.212875,-0.011491775512695312
7045.166,-0.010156631469726562
7047.119125,-0.008535385131835938
7049.07225,-0.010442733764648438
7051.025375,-0.010156631469726562
7052.9785,-0.0061511993408203125
7054.931625,-0.00457763671875
7056.88475,-0.0068187713623046875
7058.837875,-0.0070095062255859375
7060.791,-0.00858306884765625
7062.744125,-0.007534027099609375
7064.69725,-0.0032901763916015625
7066.650375,-0.002384185791015625
7068.6035,-0.0003337860107421875
7070.556625,0.002193450927734375
7072.50975,0.0009059906005859375
7074.462875,-0.0005245208740234375
7076.416,0.001239776611328125
7078.369125,-0.00209808349609375
7080.32225,-0.00896453857421875
7082.275375,-0.0030994415283203125
7084.2285,0.010204315185546875
7086.181625,0.011730194091796875
7088.13475,0.00324249267578125
7090.087875,0.0005245208740234375
7092.041,0.0017642974853515625
7093.994125,0.0019073486328125
7095.94725,0.002384185791015625
7097.900375,0.0005245208740234375
7099.8535,0.0024318695068359375
7101.806625,0.004673004150390625
7103.75975,0.001049041748046875
7105.712875,0.00152587890625
7107.666,0.0064849853515625
7109.619125,0.0075817108154296875
7111.57225,0.0024318695068359375
7113.525375,0.000476837158203125
7115.4785,0.0057697296142578125
7117.431625,0.0050067901611328125
7119.38475,0.0030040740966796875
7121.337875,0.008678436279296875
7123.291,0.007963180541992188
7125.244125,0.003814697265625
7127.19725,0.0072479248046875
7129.150375,0.010824203491210938
7131.1035,0.00858306884765625
7133.056625,0.002384185791015625
7135.00975,0.001239776611328125
7136.962875,0.0057697296142578125
7138.916,0.005435943603515625
7140.869125,0.0015735626220703125
7142.82225,0.001430511474609375
7144.775375,0.004482269287109375
7146.7285,0.0039577484130859375
7148.681625,0.0040531158447265625
7150.63475,0.0070095062255859375
7152.587875,0.004482269287109375
7154.541,0.0030517578125
7156.494125,0.006008148193359375
7158.44725,0.00514984130859375
7160.400375,0.002956390380859375
7162.3535,0.00457763671875
7164.306625,0.0034809112548828125
7166.25975,-0.0011920928955078125
7168.212875,0.0010013580322265625
7170.166,0.0057220458984375
7172.119125,0.003910064697265625
7174.07225,0.0026702880859375
7176.025375,0.0061511993408203125
7177.9785,0.008726119995117188
7179.931625,0.005435943603515625
7181.88475,-0.0017642974853515625
7183.837875,-0.000858306884765625
7185.791,0.0052928924560546875
7187.744125,0.00438690185546875
7189.69725,0.002288818359375
7191.650375,0.00171661376953125
7193.6035,-0.00019073486328125
7195.556625,0.00152587890625
7197.50975,0.0028133392333984375
7199.462875,-0.0025272369384765625
7201.416,-0.0030994415283203125
7203.369125,0.0032901763916015625
7205.32225,0.004482269287109375
7207.275375,0.0020503997802734375
7209.2285,0.0016689300537109375
7211.181625,0.0014781951904296875
7213.13475,0.0026702880859375
7215.087875,0.006389617919921875
7217.041,0.0035762786865234375
7218.994125,-0.0029087066650390625
7220.94725,-0.0006198883056640625
7222.900375,0.0004291534423828125
7224.8535,-0.0030517578125
7226.806625,-0.000858306884765625
7228.75975,0.00019073486328125
7230.712875,0.0040531158447265625
7232.666,0.010824203491210938
7234.619125,0.0053882598876953125
7236.57225,0.001811981201171875
7238.525375,0.0037670135498046875
7240.4785,-0.0003337860107421875
7242.431625,-0.0022411346435546875
7244.38475,-0.0032901763916015625
7246.337875,-0.0031948089599609375
7248.291,-0.0001430511474609375
7250.244125,-0.0017642974853515625
7252.19725,-0.0011444091796875
7254.150375,0.0020503997802734375
7256.1035,0.0011444091796875
7258.056625,-0.0008106231689453125
7260.00975,-0.001049041748046875
7261.962875,0.000286102294921875
7263.916,-0.0011920928955078125
7265.869125,-0.00152587890625
7267.82225,0.004482269287109375
7269.775375,0.007724761962890625
7271.7285,0.0042438507080078125
7273.681625,0.0024318695068359375
7275.63475,0.0003337860107421875
7277.587875,-0.002288818359375
7279.541,-0.0003337860107421875
7281.494125,-9.5367431640625e-05
7283.44725,-0.00247955322265625
7285.400375,0.000286102294921875
7287.3535,0.00324249267578125
7289.306625,0.0026702880859375
7291.25975,0.0044345855712890625
7293.212875,0.0024318695068359375
7295.166,-0.0030994415283203125
7297.119125,-0.0030994415283203125
7299.07225,-0.0002384185791015625
7301.025375,0.000762939453125
7302.9785,-0.0030040740966796875
7304.931625,-0.00400543212890625
7306.88475,0.00133514404296875
